1042.414189	703.0
1042.980685	707.25
1043.547124	701.25
1044.113505	704.75
1044.679828	705.5
1045.246093	700.75
1045.8123	706.75
1046.378449	701.25
1046.94454	703.75
1047.510573	697.0
1048.076548	700.0
1048.642465	702.0
1049.208325	700.0
1049.774126	702.25
1050.339869	699.0
1050.905555	700.25
1051.471183	698.75
1052.036752	697.75
1052.602264	696.25
1053.167718	697.5
1053.733114	703.0
1054.298452	695.75
1054.863733	701.0
1055.428955	700.75
1055.994119	698.25
1056.559226	701.0
1057.124275	698.25
1057.689266	694.25
1058.254199	696.0
1058.819074	696.75
1059.383891	695.5
1059.94865	696.0
1060.513352	695.5
1061.077996	696.25
1061.642582	695.5
1062.20711	695.0
1062.77158	694.5
1063.335992	694.0
1063.900347	694.0
1064.464643	697.5
1065.028882	693.25
1065.593063	697.5
1066.157187	696.0
1066.721252	697.0
1067.28526	693.0
1067.84921	695.5
1068.413102	699.25
1068.976936	695.75
1069.540713	698.0
1070.104431	701.75
1070.668092	693.0
1071.231696	697.5
1071.795241	696.75
1072.358729	693.25
1072.922159	693.5
1073.485531	697.25
1074.048845	697.25
1074.612102	694.25
1075.175301	692.5
1075.738442	692.75
1076.301525	694.25
1076.864551	695.75
1077.427519	695.5
1077.990429	694.75
1078.553281	694.0
1079.116076	696.25
1079.678813	694.5
1080.241492	698.25
1080.804114	696.25
1081.366678	690.75
1081.929184	695.5
1082.491633	695.25
1083.054024	692.0
1083.616357	692.5
1084.178632	691.5
1084.74085	689.75
1085.30301	693.5
1085.865113	693.5
1086.427158	696.25
1086.989145	693.5
1087.551074	695.0
1088.112946	696.25
1088.67476	694.75
1089.236517	696.0
1089.798216	694.75
1090.359857	694.0
1090.92144	697.5
1091.482966	694.0
1092.044435	694.5
1092.605845	688.0
1093.167199	695.0
1093.728494	694.5
1094.289732	700.25
1094.850912	696.5
1095.412035	696.0
1095.9731	691.75
1096.534107	694.75
1097.095057	700.0
1097.65595	693.5
1098.216784	695.25
1098.777561	696.5
1099.338281	694.25
1099.898943	693.5
1100.459547	695.0
1101.020094	695.5
1101.580584	693.0
1102.141015	692.25
1102.701389	693.75
1103.261706	692.0
1103.821965	697.5
1104.382167	693.75
1104.942311	691.25
1105.502397	692.0
1106.062426	693.0
1106.622398	699.75
1107.182312	695.25
1107.742168	696.5
1108.301967	696.0
1108.861708	694.0
1109.421392	696.25
1109.981019	690.75
1110.540587	688.5
1111.100099	697.75
1111.659553	694.75
1112.218949	692.5
1112.778288	693.75
1113.33757	696.75
1113.896794	692.5
1114.45596	691.75
1115.015069	693.25
1115.574121	698.25
1116.133115	696.5
1116.692052	695.0
1117.250931	691.75
1117.809753	695.5
1118.368517	698.0
1118.927224	693.0
1119.485873	691.25
1120.044465	692.5
1120.603	692.0
1121.161477	691.5
1121.719897	691.5
1122.278259	689.25
1122.836564	694.25
1123.394812	692.0
1123.953002	693.0
1124.511135	694.0
1125.06921	693.0
1125.627228	692.75
1126.185189	691.0
1126.743092	693.0
1127.300938	692.5
1127.858726	695.0
1128.416457	691.25
1128.974131	689.5
1129.531748	691.5
1130.089307	690.5
1130.646808	695.0
1131.204252	691.5
1131.761639	692.5
1132.318969	695.75
1132.876241	689.5
1133.433456	691.5
1133.990614	695.25
1134.547714	694.5
1135.104757	692.25
1135.661743	694.75
1136.218671	690.75
1136.775542	693.75
1137.332356	692.25
1137.889112	692.75
1138.445811	689.5
1139.002453	690.75
1139.559037	690.75
1140.115565	693.5
1140.672035	694.75
1141.228447	695.25
1141.784803	693.75
1142.341101	692.75
1142.897342	692.0
1143.453525	692.25
1144.009651	690.0
1144.565721	692.0
1145.121732	697.25
1145.677687	689.0
1146.233584	693.75
1146.789424	695.75
1147.345207	695.0
1147.900933	694.25
1148.456601	693.5
1149.012212	695.25
1149.567766	695.5
1150.123263	693.25
1150.678702	689.25
1151.234085	692.0
1151.78941	696.5
1152.344678	692.0
1152.899888	695.25
1153.455042	689.0
1154.010138	692.5
1154.565177	692.75
1155.120159	694.25
1155.675084	691.5
1156.229951	693.5
1156.784762	694.25
1157.339515	694.75
1157.894211	695.75
1158.44885	693.75
1159.003432	690.0
1159.557956	691.25
1160.112424	695.25
1160.666834	689.5
1161.221187	693.5
1161.775483	693.75
1162.329722	697.5
1162.883904	694.0
1163.438029	691.75
1163.992096	690.0
1164.546107	695.25
1165.10006	692.25
1165.653956	692.0
1166.207795	695.75
1166.761577	697.75
1167.315302	694.25
1167.86897	691.5
1168.422581	692.25
1168.976134	694.75
1169.529631	692.25
1170.08307	694.5
1170.636453	693.0
1171.189778	691.5
1171.743046	696.0
1172.296257	692.5
1172.849412	692.25
1173.402509	693.25
1173.955549	697.5
1174.508532	691.5
1175.061458	695.25
1175.614327	695.0
1176.167138	696.0
1176.719893	693.25
1177.272591	692.0
1177.825232	694.0
1178.377816	692.5
1178.930342	696.0
1179.482812	695.0
1180.035225	691.25
1180.587581	693.75
1181.139879	696.25
1181.692121	693.75
1182.244306	692.0
1182.796434	694.75
1183.348504	693.5
1183.900518	696.0
1184.452475	695.25
1185.004375	693.75
1185.556218	692.25
1186.108004	693.0
1186.659733	696.5
1187.211405	694.5
1187.76302	693.0
1188.314578	692.0
1188.866079	693.5
1189.417523	692.5
1189.96891	694.25
1190.520241	692.75
1191.071514	694.75
1191.622731	691.75
1192.17389	689.5
1192.724993	692.5
1193.276039	714.75
1193.827027	690.0
1194.377959	692.25
1194.928834	690.25
1195.479653	695.0
1196.030414	691.0
1196.581118	694.0
1197.131766	692.0
1197.682356	692.0
1198.23289	692.75
1198.783367	695.0
1199.333786	691.0
1199.88415	694.5
1200.434456	691.5
1200.984705	693.75
1201.534898	693.0
1202.085033	693.5
1202.635112	694.0
1203.185134	690.25
1203.735099	693.75
1204.285007	693.25
1204.834859	688.75
1205.384653	693.5
1205.934391	693.75
1206.484072	696.5
1207.033696	694.75
1207.583263	695.5
1208.132774	692.75
1208.682228	690.5
1209.231624	695.25
1209.780965	692.75
1210.330248	694.0
1210.879474	690.5
1211.428644	692.5
1211.977757	692.75
1212.526813	690.5
1213.075813	693.75
1213.624755	695.5
1214.173641	691.0
1214.72247	697.75
1215.271242	689.75
1215.819958	700.0
1216.368617	696.0
1216.917219	693.75
1217.465764	692.0
1218.014253	696.25
1218.562685	691.0
1219.11106	697.0
1219.659378	688.75
1220.20764	692.5
1220.755845	690.5
1221.303993	694.75
1221.852085	694.5
1222.400119	694.5
1222.948097	694.0
1223.496019	696.0
1224.043883	688.25
1224.591691	694.0
1225.139443	697.0
1225.687137	694.5
1226.234775	697.5
1226.782357	694.25
1227.329881	688.25
1227.877349	694.75
1228.42476	696.5
1228.972115	690.25
1229.519413	692.75
1230.066654	693.5
1230.613839	691.25
1231.160967	695.25
1231.708038	701.75
1232.255053	693.25
1232.802011	695.5
1233.348912	693.75
1233.895757	695.0
1234.442545	693.75
1234.989277	692.0
1235.535951	693.0
1236.08257	696.5
1236.629131	696.0
1237.175636	696.25
1237.722085	692.0
1238.268477	690.75
1238.814812	691.25
1239.361091	693.0
1239.907313	690.25
1240.453478	693.5
1240.999587	693.25
1241.54564	692.5
1242.091636	691.0
1242.637575	699.0
1243.183457	696.0
1243.729284	693.5
1244.275053	690.5
1244.820766	694.25
1245.366423	695.5
1245.912022	694.25
1246.457566	694.0
1247.003053	692.25
1247.548483	693.5
1248.093857	697.25
1248.639174	691.5
1249.184435	696.0
1249.729639	692.5
1250.274787	697.75
1250.819878	687.25
1251.364912	691.25
1251.909891	695.5
1252.454812	699.5
1252.999677	697.75
1253.544486	695.5
1254.089238	694.25
1254.633934	693.25
1255.178573	694.5
1255.723156	693.5
1256.267682	693.75
1256.812152	694.0
1257.356565	692.75
1257.900922	693.25
1258.445223	695.5
1258.989467	697.75
1259.533654	694.25
1260.077785	709.25
1260.62186	689.75
1261.165878	698.25
1261.70984	696.5
1262.253745	694.0
1262.797594	698.0
1263.341386	696.0
1263.885123	696.75
1264.428802	690.5
1264.972425	696.75
1265.515992	696.25
1266.059503	692.25
1266.602957	697.0
1267.146354	696.25
1267.689696	695.25
1268.23298	697.75
1268.776209	694.5
1269.319381	693.5
1269.862497	699.25
1270.405556	693.75
1270.948559	694.5
1271.491506	692.25
1272.034396	695.0
1272.57723	696.25
1273.120007	691.25
1273.662728	699.0
1274.205393	693.25
1274.748002	696.5
1275.290554	695.0
1275.83305	695.25
1276.375489	693.0
1276.917872	694.0
1277.460199	692.5
1278.00247	694.5
1278.544684	699.75
1279.086842	697.75
1279.628943	696.75
1280.170989	704.0
1280.712978	711.5
1281.25491	716.25
1281.796787	709.25
1282.338607	704.75
1282.880371	702.5
1283.422078	702.5
1283.963729	697.0
1284.505324	698.25
1285.046863	694.25
1285.588345	693.5
1286.129772	694.5
1286.671142	696.75
1287.212455	692.5
1287.753713	696.0
1288.294914	697.0
1288.836059	693.0
1289.377147	695.0
1289.91818	693.25
1290.459156	698.5
1291.000076	699.5
1291.54094	696.0
1292.081747	693.0
1292.622499	691.25
1293.163194	692.0
1293.703833	695.0
1294.244415	693.0
1294.784942	694.0
1295.325412	698.0
1295.865826	698.75
1296.406184	691.25
1296.946486	691.0
1297.486731	693.75
1298.026921	692.25
1298.567054	693.0
1299.107131	692.25
1299.647152	693.25
1300.187116	696.75
1300.727025	696.5
1301.266877	696.25
1301.806673	692.75
1302.346413	693.0
1302.886097	693.25
1303.425725	698.75
1303.965297	697.25
1304.504812	690.5
1305.044272	691.75
1305.583675	695.75
1306.123022	696.5
1306.662313	694.25
1307.201548	690.25
1307.740727	701.25
1308.279849	697.25
1308.818916	694.25
1309.357926	694.0
1309.896881	696.0
1310.435779	694.0
1310.974621	692.5
1311.513407	693.5
1312.052137	688.75
1312.590811	697.25
1313.129429	694.0
1313.667991	696.0
1314.206497	691.75
1314.744946	691.25
1315.28334	696.75
1315.821678	693.5
1316.359959	701.0
1316.898184	692.0
1317.436354	696.75
1317.974467	695.75
1318.512525	698.0
1319.050526	693.25
1319.588471	696.0
1320.12636	695.5
1320.664194	694.25
1321.201971	694.75
1321.739692	692.25
1322.277357	695.25
1322.814967	697.25
1323.35252	690.75
1323.890017	702.75
1324.427458	695.75
1324.964843	697.25
1325.502173	696.25
1326.039446	692.0
1326.576663	695.0
1327.113824	693.25
1327.65093	697.25
1328.187979	693.75
1328.724972	696.5
1329.26191	693.5
1329.798791	694.25
1330.335617	695.5
1330.872386	693.5
1331.4091	696.75
1331.945758	693.0
1332.48236	692.0
1333.018905	694.75
1333.555395	697.0
1334.091829	693.0
1334.628207	700.0
1335.164529	699.25
1335.700796	694.75
1336.237006	692.75
1336.77316	693.0
1337.309259	694.25
1337.845301	695.25
1338.381288	700.25
1338.917219	694.0
1339.453094	694.75
1339.988913	691.75
1340.524676	698.5
1341.060383	695.75
1341.596034	699.25
1342.13163	693.25
1342.66717	694.0
1343.202653	698.5
1343.738081	696.25
1344.273453	693.5
1344.80877	692.75
1345.34403	696.5
1345.879235	692.25
1346.414383	689.75
1346.949476	694.25
1347.484513	696.5
1348.019494	697.25
1348.55442	691.75
1349.089289	693.5
1349.624103	695.5
1350.158861	693.5
1350.693563	693.75
1351.228209	694.5
1351.7628	699.0
1352.297334	697.75
1352.831813	693.0
1353.366236	697.0
1353.900604	692.5
1354.434915	694.75
1354.969171	693.75
1355.503371	696.0
1356.037515	696.25
1356.571604	695.5
1357.105636	695.5
1357.639613	689.5
1358.173535	696.75
1358.7074	696.75
1359.24121	696.75
1359.774964	697.75
1360.308662	691.5
1360.842304	693.5
1361.375891	695.25
1361.909422	699.0
1362.442897	698.25
1362.976317	697.25
1363.50968	694.5
1364.042989	697.75
1364.576241	695.25
1365.109438	698.5
1365.642579	698.25
1366.175664	690.75
1366.708693	694.75
1367.241667	694.5
1367.774585	700.0
1368.307448	691.25
1368.840255	695.0
1369.373006	693.75
1369.905701	694.0
1370.438341	694.25
1370.970925	696.25
1371.503454	693.25
1372.035926	698.75
1372.568344	695.75
1373.100705	697.75
1373.633011	693.0
1374.165261	693.75
1374.697456	693.75
1375.229595	697.5
1375.761678	693.25
1376.293705	696.25
1376.825677	695.0
1377.357594	696.25
1377.889455	698.75
1378.42126	696.0
1378.953009	696.25
1379.484703	695.25
1380.016342	695.5
1380.547924	694.25
1381.079452	692.25
1381.610923	697.5
1382.142339	694.5
1382.673699	703.0
1383.205004	699.0
1383.736253	693.5
1384.267447	700.0
1384.798585	705.75
1385.329668	710.75
1385.860695	729.0
1386.391666	745.25
1386.922582	738.0
1387.453442	723.25
1387.984247	702.0
1388.514996	701.5
1389.04569	697.25
1389.576328	696.0
1390.10691	699.25
1390.637437	698.75
1391.167909	697.75
1391.698325	699.0
1392.228685	695.5
1392.75899	695.5
1393.28924	696.5
1393.819434	700.0
1394.349572	698.0
1394.879655	695.5
1395.409683	691.5
1395.939655	698.75
1396.469571	696.0
1396.999432	692.25
1397.529237	693.75
1398.058987	696.75
1398.588682	696.75
1399.118321	697.0
1399.647905	699.75
1400.177433	695.0
1400.706906	698.75
1401.236323	698.25
1401.765685	697.0
1402.294991	695.75
1402.824242	700.25
1403.353437	695.25
1403.882577	692.5
1404.411662	696.75
1404.940691	696.25
1405.469665	698.75
1405.998583	695.0
1406.527446	694.5
1407.056253	697.25
1407.585005	697.75
1408.113702	695.5
1408.642343	693.25
1409.170929	699.0
1409.69946	702.75
1410.227935	695.25
1410.756354	695.75
1411.284719	695.0
1411.813028	693.75
1412.341281	699.5
1412.869479	695.25
1413.397622	693.0
1413.92571	698.0
1414.453742	697.75
1414.981718	696.0
1415.50964	714.5
1416.037506	696.0
1416.565316	694.5
1417.093072	696.5
1417.620772	692.75
1418.148416	696.0
1418.676005	693.0
1419.203539	699.25
1419.731018	696.25
1420.258441	693.0
1420.785809	693.5
1421.313122	697.75
1421.840379	699.25
1422.367582	695.25
1422.894728	696.0
1423.42182	695.75
1423.948856	694.5
1424.475837	694.25
1425.002762	690.25
1425.529633	695.0
1426.056448	695.0
1426.583207	692.75
1427.109912	695.0
1427.636561	693.0
1428.163155	694.5
1428.689694	697.75
1429.216177	698.25
1429.742605	694.0
1430.268978	691.0
1430.795296	692.75
1432.900014	699.0
1433.426056	694.25
1433.952042	696.75
1434.477973	694.25
1435.003849	691.5
1435.529669	693.25
1436.055435	697.25
1436.581145	696.75
1437.1068	694.25
1437.632399	697.5
1438.157944	697.75
1438.683433	694.5
1439.208868	695.5
1439.734247	693.75
1440.25957	696.0
1440.784839	697.5
1441.310053	697.25
1441.835211	694.75
1442.360314	698.0
1442.885362	695.0
1443.410355	696.25
1443.935292	695.25
1444.460175	696.75
1444.985002	695.0
1445.509774	698.75
1446.034491	693.0
1446.559153	698.25
1447.08376	698.25
1447.608312	700.25
1448.132808	693.5
1448.65725	694.25
1449.181636	693.5
1449.705967	695.75
1450.230243	694.5
1450.754464	693.75
1451.27863	695.0
1451.802741	700.25
1452.326797	694.25
1452.850797	694.75
1453.374743	693.75
1453.898633	697.0
1454.422468	692.75
1454.946249	693.75
1455.469974	694.75
1455.993644	697.0
1456.517259	691.5
1457.040819	699.0
1457.564324	693.25
1458.087773	695.25
1458.611168	692.25
1459.134508	694.0
1459.657793	699.0
1460.181022	695.5
1460.704197	694.75
1461.227316	691.0
1461.750381	696.25
1462.27339	698.25
1462.796345	699.75
1463.319244	696.25
1463.842089	694.25
1464.364878	697.5
1464.887613	690.0
1465.410292	698.5
1465.932916	696.25
1466.455486	697.75
1466.978	692.75
1467.50046	693.25
1468.022864	694.75
1468.545214	696.5
1469.067508	693.0
1469.589748	698.5
1470.111932	696.25
1470.634062	692.0
1471.156136	697.5
1471.678156	694.0
1472.20012	695.25
1472.72203	695.5
1473.243885	695.5
1473.765685	695.75
1474.28743	697.0
1474.80912	694.25
1475.330755	695.25
1475.852335	694.25
1476.37386	697.75
1476.89533	693.25
1477.416745	695.5
1477.938106	691.0
1478.459411	696.0
1478.980662	694.0
1479.501857	697.0
1480.022998	694.0
1480.544084	695.0
1481.065115	694.5
1481.586091	694.25
1482.107012	696.25
1482.627878	695.25
1483.14869	695.5
1483.669446	695.25
1484.190148	695.75
1484.710794	695.5
1485.231386	700.0
1485.751923	695.0
1486.272406	695.25
1486.792833	696.5
1487.313205	696.0
1487.833523	697.0
1488.353786	696.0
1488.873994	698.0
1489.394147	697.25
1489.914245	696.0
1490.434288	699.25
1490.954277	696.75
1491.474211	699.25
1491.99409	692.75
1492.513914	692.5
1493.033683	695.25
1493.553398	696.0
1494.073057	698.75
1494.592662	697.25
1495.112212	699.75
1495.631708	697.0
1496.151148	692.75
1496.670534	694.25
1497.189865	697.5
1497.709141	696.0
1498.228362	692.25
1498.747529	693.25
1499.266641	692.75
1499.785698	703.75
1500.3047	697.0
1500.823648	696.25
1501.34254	695.5
1501.861379	694.0
1502.380162	692.5
1502.89889	697.5
1503.417564	697.0
1503.936183	694.25
1504.454748	693.0
1504.973257	694.75
1505.491712	695.75
1506.010112	698.25
1506.528458	696.75
1507.046748	691.75
1507.564984	693.5
1508.083166	697.0
1508.601292	692.75
1509.119364	699.75
1509.637381	690.5
1510.155344	691.0
1510.673252	703.0
1511.191105	695.5
1511.708903	694.75
1512.226647	701.25
1512.744336	695.25
1513.261971	691.5
1513.77955	698.0
1514.297076	695.25
1514.814546	697.75
1515.331962	696.5
1515.849323	695.25
1516.366629	696.25
1516.883881	691.5
1517.401078	694.5
1517.918221	696.75
1518.435309	699.5
1518.952342	696.25
1519.469321	693.5
1519.986245	695.25
1520.503114	697.25
1521.019929	696.0
1521.536689	697.75
1522.053395	697.5
1522.570046	697.0
1523.086642	700.0
1523.603184	696.5
1524.119671	696.0
1524.636103	697.75
1525.152481	695.0
1525.668805	695.5
1526.185073	695.75
1526.701288	698.0
1527.217447	696.0
1527.733552	694.75
1528.249603	696.75
1528.765599	697.0
1529.28154	694.25
1529.797427	698.0
1530.313259	695.0
1530.829037	702.0
1531.34476	691.75
1531.860429	696.75
1532.376043	698.75
1532.891602	699.0
1533.407107	693.75
1533.922558	694.0
1534.437954	691.5
1534.953295	699.0
1535.468582	696.25
1535.983815	699.5
1536.498993	692.75
1537.014116	694.25
1537.529185	694.5
1538.044199	698.25
1538.559159	695.5
1539.074064	694.25
1539.588915	699.25
1540.103712	694.5
1540.618454	693.75
1541.133141	693.25
1541.647774	698.25
1542.162353	697.0
1542.676877	695.0
1543.191346	693.0
1543.705761	693.25
1544.220122	698.5
1544.734428	697.5
1545.24868	695.5
1545.762877	694.75
1546.27702	697.5
1546.791109	697.0
1547.305143	697.0
1547.819122	699.0
1548.333047	693.5
1548.846918	696.75
1549.360734	697.5
1549.874496	695.5
1550.388204	695.0
1550.901857	694.0
1551.415455	696.75
1551.929	694.75
1552.442489	693.75
1552.955925	696.0
1553.469306	697.0
1553.982632	696.0
1554.495905	696.0
1555.009123	691.75
1555.522286	701.25
1556.035395	695.5
1556.54845	697.25
1557.06145	695.75
1557.574396	696.5
1558.087288	698.0
1558.600125	698.5
1559.112908	695.25
1559.625637	696.75
1560.138311	694.0
1560.650931	694.25
1561.163497	697.5
1561.676008	691.0
1562.188465	694.25
1562.700867	696.75
1563.213216	696.5
1563.725509	697.0
1564.237749	691.5
1564.749934	696.25
1565.262065	695.75
1565.774142	693.25
1566.286164	694.0
1566.798132	694.5
1567.310046	697.5
1567.821906	697.75
1568.333711	694.5
1568.845462	695.25
1569.357158	698.5
1569.868801	694.5
1570.380389	699.5
1570.891922	696.25
1571.403402	699.0
1571.914827	694.25
1572.426198	697.0
1572.937515	696.5
1573.448777	696.75
1573.959985	693.75
1574.471139	698.75
1574.982239	693.75
1575.493285	689.75
1576.004276	693.75
1576.515213	695.25
1577.026096	698.75
1577.536924	697.75
1578.047698	694.0
1578.558419	696.5
1579.069084	695.0
1579.579696	700.75
1580.090254	694.0
1580.600757	694.75
1581.111206	696.5
1581.621601	696.75
1582.131941	697.75
1582.642228	693.75
1583.15246	702.0
1583.662638	695.75
1584.172762	697.25
1584.682832	696.0
1585.192847	696.0
1585.702809	694.75
1586.212716	699.0
1586.722569	696.5
1587.232368	693.75
1587.742113	695.0
1588.251803	702.25
1588.76144	691.75
1589.271022	700.5
1589.78055	700.0
1590.290024	694.25
1590.799444	696.75
1591.30881	696.5
1591.818121	699.75
1592.327379	696.5
