 6.956722796E+01	 1.199225000E+04
 7.451684524E+01	 1.028775000E+04
 7.946398496E+01	 8.859000000E+03
 8.440864694E+01	 7.721250000E+03
 8.935083102E+01	 6.753500000E+03
 9.429053707E+01	 5.821000000E+03
 9.922776497E+01	 5.068500000E+03
 1.041625146E+02	 4.459500000E+03
 1.090947859E+02	 3.940000000E+03
 1.140245787E+02	 3.542750000E+03
 1.189518930E+02	 3.166250000E+03
 1.238767287E+02	 2.867750000E+03
 1.287990858E+02	 2.587750000E+03
 1.337189643E+02	 2.397000000E+03
 1.386363642E+02	 2.210750000E+03
 1.435512854E+02	 2.085750000E+03
 1.484637280E+02	 1.994750000E+03
 1.533736919E+02	 1.871250000E+03
 1.582811774E+02	 1.803250000E+03
 1.631861843E+02	 1.765250000E+03
 1.680887129E+02	 1.735000000E+03
 1.729887631E+02	 1.731500000E+03
 1.778863350E+02	 1.724250000E+03
 1.827814288E+02	 1.725750000E+03
 1.876740447E+02	 1.706500000E+03
 1.925641826E+02	 1.651500000E+03
 1.974518429E+02	 1.560750000E+03
 2.023370256E+02	 1.501000000E+03
 2.072197309E+02	 1.508250000E+03
 2.120999591E+02	 1.528250000E+03
 2.169777103E+02	 1.551250000E+03
 2.218529847E+02	 1.545500000E+03
 2.267257825E+02	 1.521500000E+03
 2.315961041E+02	 1.471500000E+03
 2.364639496E+02	 1.453000000E+03
 2.413293194E+02	 1.441750000E+03
 2.461922136E+02	 1.436500000E+03
 2.510526327E+02	 1.415250000E+03
 2.559105768E+02	 1.393000000E+03
 2.607660464E+02	 1.357500000E+03
 2.656190416E+02	 1.354750000E+03
 2.704695630E+02	 1.346250000E+03
 2.753176107E+02	 1.367000000E+03
 2.801631853E+02	 1.411000000E+03
 2.850062870E+02	 1.470250000E+03
 2.898469162E+02	 1.521250000E+03
 2.946850734E+02	 1.618500000E+03
 2.995207589E+02	 1.730250000E+03
 3.043539732E+02	 1.891500000E+03
 3.091847166E+02	 2.103000000E+03
 3.140129898E+02	 2.303500000E+03
 3.188387930E+02	 2.503750000E+03
 3.236621267E+02	 2.629750000E+03
 3.284829915E+02	 2.575250000E+03
 3.333013879E+02	 2.476250000E+03
 3.381173162E+02	 2.327250000E+03
 3.429307771E+02	 2.181750000E+03
 3.477417710E+02	 2.092250000E+03
 3.525502985E+02	 2.053000000E+03
 3.573563601E+02	 2.038750000E+03
 3.621599564E+02	 2.015750000E+03
 3.669610880E+02	 2.082000000E+03
 3.717597553E+02	 2.163500000E+03
 3.765559591E+02	 2.363000000E+03
 3.813496998E+02	 2.645000000E+03
 3.861409781E+02	 2.917750000E+03
 3.909297947E+02	 2.850500000E+03
 3.957161500E+02	 2.469000000E+03
 4.005000449E+02	 2.026250000E+03
 4.052814798E+02	 1.722000000E+03
 4.100604555E+02	 1.516000000E+03
 4.148369727E+02	 1.442000000E+03
 4.196110319E+02	 1.354750000E+03
 4.243826340E+02	 1.309250000E+03
 4.291517795E+02	 1.287500000E+03
 4.339184693E+02	 1.271250000E+03
 4.386827039E+02	 1.253250000E+03
 4.434444842E+02	 1.256750000E+03
 4.482038108E+02	 1.259750000E+03
 4.529606845E+02	 1.267500000E+03
 4.577151061E+02	 1.271250000E+03
 4.624670763E+02	 1.256500000E+03
 4.672165959E+02	 1.253250000E+03
 4.719636656E+02	 1.278250000E+03
 4.767082863E+02	 1.256750000E+03
 4.814504588E+02	 1.251750000E+03
 4.861901838E+02	 1.253000000E+03
 4.909274622E+02	 1.245000000E+03
 4.956622948E+02	 1.286000000E+03
 5.003946824E+02	 1.326750000E+03
 5.051246259E+02	 1.361000000E+03
 5.098521262E+02	 1.401250000E+03
 5.145771840E+02	 1.388500000E+03
 5.192998002E+02	 1.418250000E+03
 5.240199758E+02	 1.429750000E+03
 5.287377116E+02	 1.417500000E+03
 5.334530085E+02	 1.400500000E+03
 5.381658674E+02	 1.380000000E+03
 5.428762893E+02	 1.363500000E+03
 5.475842749E+02	 1.385250000E+03
 5.522898254E+02	 1.403250000E+03
 5.569929415E+02	 1.366500000E+03
 5.616936243E+02	 1.306750000E+03
 5.663918746E+02	 1.284750000E+03
 5.710876935E+02	 1.251500000E+03
 5.757810819E+02	 1.230750000E+03
 5.804720408E+02	 1.184750000E+03
 5.851605712E+02	 1.153000000E+03
 5.898466741E+02	 1.123500000E+03
 5.945303504E+02	 1.102250000E+03
 5.992116011E+02	 1.087750000E+03
 6.038904273E+02	 1.093750000E+03
 6.085668301E+02	 1.103750000E+03
 6.132408103E+02	 1.104750000E+03
 6.179123691E+02	 1.122750000E+03
 6.225815075E+02	 1.154500000E+03
 6.272482266E+02	 1.180250000E+03
 6.319125273E+02	 1.205000000E+03
 6.365744109E+02	 1.295000000E+03
 6.412338782E+02	 1.413000000E+03
 6.458909305E+02	 1.646750000E+03
 6.505455688E+02	 1.992250000E+03
 6.551977942E+02	 2.504250000E+03
 6.598476078E+02	 2.802500000E+03
 6.644950107E+02	 2.541750000E+03
 6.691400040E+02	 2.045500000E+03
 6.737825888E+02	 1.730750000E+03
 6.784227663E+02	 1.513000000E+03
 6.830605376E+02	 1.351500000E+03
 6.876959038E+02	 1.292000000E+03
 6.923288661E+02	 1.245000000E+03
 6.969594256E+02	 1.220000000E+03
 7.015875835E+02	 1.182000000E+03
 7.062133409E+02	 1.161750000E+03
 7.108366991E+02	 1.138250000E+03
 7.154576592E+02	 1.135500000E+03
 7.200762224E+02	 1.106500000E+03
 7.246923898E+02	 1.115000000E+03
 7.293061628E+02	 1.107750000E+03
 7.339175424E+02	 1.100000000E+03
 7.385265299E+02	 1.106250000E+03
 7.431331264E+02	 1.108000000E+03
 7.477373334E+02	 1.109500000E+03
 7.523391518E+02	 1.129000000E+03
 7.569385831E+02	 1.140750000E+03
 7.615356283E+02	 1.149500000E+03
 7.661302888E+02	 1.161250000E+03
 7.707225659E+02	 1.180500000E+03
 7.753124607E+02	 1.179500000E+03
 7.798999745E+02	 1.185250000E+03
 7.844851086E+02	 1.203000000E+03
 7.890678643E+02	 1.180500000E+03
 7.936482428E+02	 1.212500000E+03
 7.982262455E+02	 1.214000000E+03
 8.028018736E+02	 1.234250000E+03
 8.073751283E+02	 1.243500000E+03
 8.119460111E+02	 1.270750000E+03
 8.165145233E+02	 1.262000000E+03
 8.210806660E+02	 1.264500000E+03
 8.256444407E+02	 1.275750000E+03
 8.302058486E+02	 1.264000000E+03
 8.347648911E+02	 1.252250000E+03
 8.393215695E+02	 1.269500000E+03
 8.438758852E+02	 1.277250000E+03
 8.484278395E+02	 1.290750000E+03
 8.529774337E+02	 1.319500000E+03
 8.575246691E+02	 1.299000000E+03
 8.620695473E+02	 1.326000000E+03
 8.666120694E+02	 1.325000000E+03
 8.711522368E+02	 1.306250000E+03
 8.756900510E+02	 1.325500000E+03
 8.802255133E+02	 1.313000000E+03
 8.847586251E+02	 1.323000000E+03
 8.892893877E+02	 1.316500000E+03
 8.938178026E+02	 1.323000000E+03
 8.983438712E+02	 1.314750000E+03
 9.028675947E+02	 1.316250000E+03
 9.073889747E+02	 1.321750000E+03
 9.119080126E+02	 1.320750000E+03
 9.164247097E+02	 1.348750000E+03
 9.209390674E+02	 1.351000000E+03
 9.254510873E+02	 1.356000000E+03
 9.299607706E+02	 1.362000000E+03
 9.344681189E+02	 1.385500000E+03
 9.389731335E+02	 1.389250000E+03
 9.434758159E+02	 1.402250000E+03
 9.479761675E+02	 1.459250000E+03
 9.524741898E+02	 1.472250000E+03
 9.569698843E+02	 1.523750000E+03
 9.614632522E+02	 1.577750000E+03
 9.659542953E+02	 1.636500000E+03
 9.704430147E+02	 1.760500000E+03
 9.749294122E+02	 1.855500000E+03
 9.794134890E+02	 2.030500000E+03
 9.838952467E+02	 2.272750000E+03
 9.883746867E+02	 2.611500000E+03
 9.928518106E+02	 3.008000000E+03
 9.973266197E+02	 3.476500000E+03
 1.001799116E+03	 3.647000000E+03
 1.006269300E+03	 3.359000000E+03
 1.010737174E+03	 2.770250000E+03
 1.015202739E+03	 2.260500000E+03
 1.019665997E+03	 1.970000000E+03
 1.024126949E+03	 1.773250000E+03
 1.028585597E+03	 1.689750000E+03
 1.033041942E+03	 1.630500000E+03
 1.037495986E+03	 1.569000000E+03
 1.041947731E+03	 1.501750000E+03
 1.046397177E+03	 1.456000000E+03
 1.050844326E+03	 1.408750000E+03
 1.055289180E+03	 1.382500000E+03
 1.059731741E+03	 1.323750000E+03
 1.064172009E+03	 1.278250000E+03
 1.068609987E+03	 1.284000000E+03
 1.073045676E+03	 1.237250000E+03
 1.077479077E+03	 1.235500000E+03
 1.081910193E+03	 1.215500000E+03
 1.086339024E+03	 1.222500000E+03
 1.090765572E+03	 1.195250000E+03
 1.095189839E+03	 1.181250000E+03
 1.099611826E+03	 1.179750000E+03
 1.104031534E+03	 1.164500000E+03
 1.108448966E+03	 1.167000000E+03
 1.112864123E+03	 1.160500000E+03
 1.117277007E+03	 1.150000000E+03
 1.121687618E+03	 1.125750000E+03
 1.126095959E+03	 1.117000000E+03
 1.130502032E+03	 1.097750000E+03
 1.134905837E+03	 1.089750000E+03
 1.139307376E+03	 1.071250000E+03
 1.143706651E+03	 1.058750000E+03
 1.148103664E+03	 1.067250000E+03
 1.152498415E+03	 1.055750000E+03
 1.156890908E+03	 1.055250000E+03
 1.161281142E+03	 1.045750000E+03
 1.165669121E+03	 1.059500000E+03
 1.170054844E+03	 1.051000000E+03
 1.174438315E+03	 1.056250000E+03
 1.178819535E+03	 1.042500000E+03
 1.183198504E+03	 1.047000000E+03
 1.187575225E+03	 1.052500000E+03
 1.191949700E+03	 1.053750000E+03
 1.196321930E+03	 1.056000000E+03
 1.200691916E+03	 1.055500000E+03
 1.205059660E+03	 1.061250000E+03
 1.209425165E+03	 1.056000000E+03
 1.213788430E+03	 1.071500000E+03
 1.218149459E+03	 1.075250000E+03
 1.222508253E+03	 1.080250000E+03
 1.226864812E+03	 1.084000000E+03
 1.231219140E+03	 1.090750000E+03
 1.235571237E+03	 1.107250000E+03
 1.239921105E+03	 1.113750000E+03
 1.244268746E+03	 1.161750000E+03
 1.248614161E+03	 1.258500000E+03
 1.252957353E+03	 1.402500000E+03
 1.257298322E+03	 1.345500000E+03
 1.261637070E+03	 1.282500000E+03
 1.265973599E+03	 1.395250000E+03
 1.270307911E+03	 2.492500000E+03
 1.274640007E+03	 4.086500000E+03
 1.278969889E+03	 1.766250000E+03
 1.283297558E+03	 1.314500000E+03
 1.287623016E+03	 1.240000000E+03
 1.291946265E+03	 1.193000000E+03
 1.296267306E+03	 1.169250000E+03
 1.300586141E+03	 1.167000000E+03
 1.304902772E+03	 1.148750000E+03
 1.309217201E+03	 1.147000000E+03
 1.313529428E+03	 1.147750000E+03
 1.317839456E+03	 1.191000000E+03
 1.322147286E+03	 1.168750000E+03
 1.326452920E+03	 1.173750000E+03
 1.330756359E+03	 1.186500000E+03
 1.335057606E+03	 1.175000000E+03
 1.339356662E+03	 1.181750000E+03
 1.343653528E+03	 1.170250000E+03
 1.347948206E+03	 1.177500000E+03
 1.352240698E+03	 1.208500000E+03
 1.356531005E+03	 1.242500000E+03
 1.360819130E+03	 1.322750000E+03
 1.365105074E+03	 1.334750000E+03
 1.369388838E+03	 1.419250000E+03
 1.373670424E+03	 2.205000000E+03
 1.377949834E+03	 6.624250000E+03
 1.382227069E+03	 4.118000000E+03
 1.386502132E+03	 1.649250000E+03
 1.390775023E+03	 1.418500000E+03
 1.395045745E+03	 1.439000000E+03
 1.399314298E+03	 1.602500000E+03
 1.403580686E+03	 1.461750000E+03
 1.407844909E+03	 1.242000000E+03
 1.412106969E+03	 1.179250000E+03
 1.416366868E+03	 1.149500000E+03
 1.420624608E+03	 1.136250000E+03
 1.424880189E+03	 1.111000000E+03
 1.429133615E+03	 1.103000000E+03
 1.433384885E+03	 1.089500000E+03
 1.437634003E+03	 1.094750000E+03
 1.441880970E+03	 1.080250000E+03
 1.446125788E+03	 1.079500000E+03
 1.450368457E+03	 1.067500000E+03
 1.454608980E+03	 1.086750000E+03
 1.458847359E+03	 1.073250000E+03
 1.463083595E+03	 1.075750000E+03
 1.467317690E+03	 1.074250000E+03
 1.471549646E+03	 1.072250000E+03
 1.475779463E+03	 1.072000000E+03
 1.480007145E+03	 1.061000000E+03
 1.484232692E+03	 1.062000000E+03
 1.488456106E+03	 1.062000000E+03
 1.492677390E+03	 1.061250000E+03
 1.496896544E+03	 1.072000000E+03
 1.501113570E+03	 1.061000000E+03
 1.505328470E+03	 1.054750000E+03
 1.509541246E+03	 1.062000000E+03
 1.513751899E+03	 1.047750000E+03
 1.517960431E+03	 1.056000000E+03
 1.522166844E+03	 1.058250000E+03
 1.526371139E+03	 1.067250000E+03
 1.530573318E+03	 1.057500000E+03
 1.534773383E+03	 1.050250000E+03
 1.538971335E+03	 1.068750000E+03
 1.543167176E+03	 1.065000000E+03
 1.547360908E+03	 1.070750000E+03
 1.551552532E+03	 1.070500000E+03
 1.555742051E+03	 1.055750000E+03
 1.559929465E+03	 1.049750000E+03
 1.564114777E+03	 1.046250000E+03
 1.568297988E+03	 1.066000000E+03
 1.572479099E+03	 1.059750000E+03
 1.576658113E+03	 1.064000000E+03
 1.580835032E+03	 1.068000000E+03
 1.585009856E+03	 1.067750000E+03
 1.589182587E+03	 1.066750000E+03
 1.593353228E+03	 1.058750000E+03
 1.597521780E+03	 1.053250000E+03
 1.601688244E+03	 1.054750000E+03
 1.605852622E+03	 1.066250000E+03
 1.610014917E+03	 1.060500000E+03
 1.614175129E+03	 1.074750000E+03
 1.618333260E+03	 1.062250000E+03
 1.622489312E+03	 1.075000000E+03
 1.626643286E+03	 1.077000000E+03
 1.630795185E+03	 1.064500000E+03
 1.634945010E+03	 1.068250000E+03
 1.639092762E+03	 1.073500000E+03
 1.643238444E+03	 1.082500000E+03
 1.647382057E+03	 1.064750000E+03
 1.651523602E+03	 1.059750000E+03
 1.655663081E+03	 1.068000000E+03
 1.659800497E+03	 1.063250000E+03
 1.663935850E+03	 1.059500000E+03
 1.668069142E+03	 1.066000000E+03
 1.672200375E+03	 1.049250000E+03
 1.676329551E+03	 1.061000000E+03
 1.680456672E+03	 1.062500000E+03
 1.684581738E+03	 1.066000000E+03
 1.688704752E+03	 1.058500000E+03
 1.692825715E+03	 1.058500000E+03
 1.696944629E+03	 1.051750000E+03
 1.701061495E+03	 1.054750000E+03
 1.705176316E+03	 1.056750000E+03
 1.709289093E+03	 1.058250000E+03
 1.713399828E+03	 1.058750000E+03
 1.717508522E+03	 1.053000000E+03
 1.721615176E+03	 1.059750000E+03
 1.725719794E+03	 1.050750000E+03
 1.729822375E+03	 1.045500000E+03
 1.733922922E+03	 1.054250000E+03
 1.738021437E+03	 1.051250000E+03
 1.742117922E+03	 1.052000000E+03
 1.746212377E+03	 1.055000000E+03
 1.750304804E+03	 1.063250000E+03
 1.754395206E+03	 1.053500000E+03
 1.758483583E+03	 1.056250000E+03
 1.762569938E+03	 1.055500000E+03
 1.766654272E+03	 1.058000000E+03
 1.770736587E+03	 1.063250000E+03
 1.774816884E+03	 1.062750000E+03
 1.778895166E+03	 1.053000000E+03
 1.782971433E+03	 1.060250000E+03
 1.787045687E+03	 1.065500000E+03
 1.791117931E+03	 1.064000000E+03
 1.795188165E+03	 1.066250000E+03
 1.799256391E+03	 1.062750000E+03
 1.803322611E+03	 1.057750000E+03
 1.807386827E+03	 1.045500000E+03
 1.811449040E+03	 1.050000000E+03
 1.815509252E+03	 1.053750000E+03
 1.819567464E+03	 1.059750000E+03
 1.823623678E+03	 1.063000000E+03
 1.827677897E+03	 1.086750000E+03
 1.831730120E+03	 1.061750000E+03
 1.835780351E+03	 1.048250000E+03
 1.839828590E+03	 1.061750000E+03
 1.843874839E+03	 1.069500000E+03
 1.847919100E+03	 1.062250000E+03
 1.851961375E+03	 1.065000000E+03
 1.856001665E+03	 1.060500000E+03
 1.860039972E+03	 1.065500000E+03
 1.864076297E+03	 1.047000000E+03
 1.868110642E+03	 1.059250000E+03
 1.872143009E+03	 1.055250000E+03
 1.876173399E+03	 1.061750000E+03
 1.880201813E+03	 1.060000000E+03
 1.884228255E+03	 1.063500000E+03
 1.888252724E+03	 1.055250000E+03
 1.892275223E+03	 1.055000000E+03
 1.896295754E+03	 1.052500000E+03
 1.900314317E+03	 1.036750000E+03
 1.904330915E+03	 1.051000000E+03
 1.908345549E+03	 1.048500000E+03
 1.912358221E+03	 1.041250000E+03
 1.916368932E+03	 1.055250000E+03
 1.920377684E+03	 1.054250000E+03
 1.924384479E+03	 1.054500000E+03
 1.928389318E+03	 1.040750000E+03
 1.932392203E+03	 1.052750000E+03
 1.936393135E+03	 1.063250000E+03
 1.940392116E+03	 1.052500000E+03
 1.944389147E+03	 1.062500000E+03
 1.948384231E+03	 1.051000000E+03
 1.952377368E+03	 1.071000000E+03
 1.956368561E+03	 1.050500000E+03
 1.960357811E+03	 1.061000000E+03
 1.964345119E+03	 1.046250000E+03
 1.968330487E+03	 1.047750000E+03
 1.972313917E+03	 1.055500000E+03
 1.976295410E+03	 1.061000000E+03
 1.980274968E+03	 1.054750000E+03
 1.984252593E+03	 1.059000000E+03
 1.988228285E+03	 1.048500000E+03
 1.992202047E+03	 1.046500000E+03
 1.996173881E+03	 1.051500000E+03
 2.000143787E+03	 1.052000000E+03
 2.004111767E+03	 1.044000000E+03
 2.008077823E+03	 1.051750000E+03
 2.012041956E+03	 1.049750000E+03
 2.016004169E+03	 1.047500000E+03
 2.019964462E+03	 1.053750000E+03
 2.023922837E+03	 1.053000000E+03
 2.027879296E+03	 1.045250000E+03
 2.031833840E+03	 1.053500000E+03
 2.035786471E+03	 1.050000000E+03
 2.039737190E+03	 1.049750000E+03
 2.043686000E+03	 1.048500000E+03
 2.047632900E+03	 1.051000000E+03
 2.051577894E+03	 1.048500000E+03
 2.055520982E+03	 1.057750000E+03
 2.059462166E+03	 1.050000000E+03
 2.063401449E+03	 1.055750000E+03
 2.067338830E+03	 1.044000000E+03
 2.071274312E+03	 1.055000000E+03
 2.075207896E+03	 1.045500000E+03
 2.079139584E+03	 1.047500000E+03
 2.083069377E+03	 1.047750000E+03
 2.086997278E+03	 1.051000000E+03
 2.090923287E+03	 1.039000000E+03
 2.094847405E+03	 1.039750000E+03
 2.098769635E+03	 1.038500000E+03
 2.102689979E+03	 1.043000000E+03
 2.106608436E+03	 1.045250000E+03
 2.110525010E+03	 1.041500000E+03
 2.114439702E+03	 1.052250000E+03
 2.118352512E+03	 1.044000000E+03
 2.122263443E+03	 1.055250000E+03
 2.126172497E+03	 1.044750000E+03
 2.130079674E+03	 1.067000000E+03
 2.133984976E+03	 1.088000000E+03
 2.137888405E+03	 1.060500000E+03
 2.141789962E+03	 1.034500000E+03
 2.145689648E+03	 1.036000000E+03
 2.149587466E+03	 1.039000000E+03
 2.153483417E+03	 1.040000000E+03
 2.157377502E+03	 1.047500000E+03
 2.161269722E+03	 1.049500000E+03
 2.165160080E+03	 1.029000000E+03
 2.169048576E+03	 1.033750000E+03
 2.172935213E+03	 1.044250000E+03
 2.176819991E+03	 1.041250000E+03
 2.180702913E+03	 1.030750000E+03
 2.184583979E+03	 1.028250000E+03
 2.188463191E+03	 1.037500000E+03
 2.192340551E+03	 1.034250000E+03
 2.196216060E+03	 1.040250000E+03
 2.200089720E+03	 1.030000000E+03
 2.203961531E+03	 1.043500000E+03
 2.207831496E+03	 1.033750000E+03
 2.211699617E+03	 1.037750000E+03
 2.215565893E+03	 1.031500000E+03
 2.219430328E+03	 1.036250000E+03
 2.223292922E+03	 1.020500000E+03
 2.227153677E+03	 1.032750000E+03
 2.231012594E+03	 1.031000000E+03
 2.234869676E+03	 1.025250000E+03
 2.238724922E+03	 1.029250000E+03
 2.242578335E+03	 1.025500000E+03
 2.246429917E+03	 1.029750000E+03
 2.250279668E+03	 1.027500000E+03
 2.254127590E+03	 1.024750000E+03
 2.257973684E+03	 1.021000000E+03
 2.261817953E+03	 1.029500000E+03
 2.265660397E+03	 1.024000000E+03
 2.269501018E+03	 1.023250000E+03
 2.273339817E+03	 1.021000000E+03
 2.277176796E+03	 1.016000000E+03
 2.281011956E+03	 1.030250000E+03
 2.284845299E+03	 1.018500000E+03
 2.288676826E+03	 1.018750000E+03
 2.292506538E+03	 1.023500000E+03
 2.296334438E+03	 1.030000000E+03
 2.300160525E+03	 1.017750000E+03
 2.303984803E+03	 1.015500000E+03
 2.307807271E+03	 1.020250000E+03
 2.311627933E+03	 1.025500000E+03
 2.315446788E+03	 1.022500000E+03
 2.319263838E+03	 1.028250000E+03
 2.323079086E+03	 1.026750000E+03
 2.326892532E+03	 1.019000000E+03
 2.330704177E+03	 1.031000000E+03
 2.334514024E+03	 1.021500000E+03
 2.338322073E+03	 1.029000000E+03
 2.342128326E+03	 1.021750000E+03
 2.345932784E+03	 1.021250000E+03
 2.349735449E+03	 1.016000000E+03
 2.353536322E+03	 1.018000000E+03
 2.357335405E+03	 1.026750000E+03
 2.361132698E+03	 1.006250000E+03
 2.364928204E+03	 1.018750000E+03
 2.368721923E+03	 1.018250000E+03
 2.372513857E+03	 1.021750000E+03
 2.376304008E+03	 1.012750000E+03
 2.380092377E+03	 1.012000000E+03
 2.383878965E+03	 1.034500000E+03
 2.387663773E+03	 1.023000000E+03
 2.391446803E+03	 1.026000000E+03
 2.395228057E+03	 1.014000000E+03
 2.399007535E+03	 1.024250000E+03
 2.402785240E+03	 1.030000000E+03
 2.406561171E+03	 1.036000000E+03
 2.410335332E+03	 1.027750000E+03
 2.414107723E+03	 1.041250000E+03
 2.417878345E+03	 1.037750000E+03
 2.421647200E+03	 1.032250000E+03
 2.425414289E+03	 1.036750000E+03
 2.429179614E+03	 1.035250000E+03
 2.432943176E+03	 1.035000000E+03
 2.436704976E+03	 1.041500000E+03
 2.440465015E+03	 1.029500000E+03
 2.444223296E+03	 1.041500000E+03
 2.447979819E+03	 1.036000000E+03
 2.451734585E+03	 1.033000000E+03
 2.455487597E+03	 1.032000000E+03
 2.459238855E+03	 1.015000000E+03
 2.462988360E+03	 1.026250000E+03
 2.466736115E+03	 1.020000000E+03
 2.470482120E+03	 1.011500000E+03
 2.474226376E+03	 1.025500000E+03
 2.477968885E+03	 1.021750000E+03
 2.481709649E+03	 1.018750000E+03
 2.485448668E+03	 1.013750000E+03
 2.489185945E+03	 1.016500000E+03
 2.492921479E+03	 1.012500000E+03
 2.496655273E+03	 1.013000000E+03
 2.500387328E+03	 1.012500000E+03
 2.504117645E+03	 1.007000000E+03
 2.507846226E+03	 1.012750000E+03
 2.511573071E+03	 1.005000000E+03
 2.515298183E+03	 1.000500000E+03
 2.519021562E+03	 1.004500000E+03
 2.522743209E+03	 1.007000000E+03
 2.526463127E+03	 1.008250000E+03
 2.530181315E+03	 1.008750000E+03
 2.533897777E+03	 1.011750000E+03
 2.537612512E+03	 1.001500000E+03
 2.541325523E+03	 1.006750000E+03
 2.545036810E+03	 1.011000000E+03
 2.548746374E+03	 1.004500000E+03
 2.552454218E+03	 9.975000000E+02
 2.556160342E+03	 9.912500000E+02
 2.559864747E+03	 1.009250000E+03
 2.563567435E+03	 9.997500000E+02
 2.567268408E+03	 9.990000000E+02
 2.570967666E+03	 9.990000000E+02
 2.574665210E+03	 1.004750000E+03
 2.578361042E+03	 9.947500000E+02
 2.582055164E+03	 9.945000000E+02
 2.585747576E+03	 1.005000000E+03
 2.589438280E+03	 9.820000000E+02
 2.593127276E+03	 9.962500000E+02
 2.596814567E+03	 9.897500000E+02
 2.600500153E+03	 9.917500000E+02
 2.604184036E+03	 9.960000000E+02
 2.607866217E+03	 9.942500000E+02
 2.611546698E+03	 9.850000000E+02
 2.615225478E+03	 9.925000000E+02
 2.618902561E+03	 9.917500000E+02
 2.622577946E+03	 9.945000000E+02
 2.626251635E+03	 9.860000000E+02
 2.629923630E+03	 9.885000000E+02
 2.633593932E+03	 9.900000000E+02
 2.637262541E+03	 9.925000000E+02
 2.640929460E+03	 9.915000000E+02
 2.644594688E+03	 9.930000000E+02
 2.648258229E+03	 9.870000000E+02
 2.651920082E+03	 9.922500000E+02
 2.655580249E+03	 9.932500000E+02
 2.659238732E+03	 9.907500000E+02
 2.662895530E+03	 9.940000000E+02
 2.666550647E+03	 9.900000000E+02
 2.670204082E+03	 9.747500000E+02
 2.673855838E+03	 9.960000000E+02
 2.677505914E+03	 9.887500000E+02
 2.681154313E+03	 9.765000000E+02
 2.684801036E+03	 9.855000000E+02
 2.688446084E+03	 9.860000000E+02
 2.692089458E+03	 9.832500000E+02
 2.695731159E+03	 9.937500000E+02
 2.699371189E+03	 9.890000000E+02
 2.703009548E+03	 9.860000000E+02
 2.706646238E+03	 9.730000000E+02
 2.710281260E+03	 9.830000000E+02
 2.713914616E+03	 9.855000000E+02
 2.717546305E+03	 9.767500000E+02
 2.721176331E+03	 9.752500000E+02
 2.724804693E+03	 9.792500000E+02
 2.728431393E+03	 9.782500000E+02
 2.732056433E+03	 9.762500000E+02
 2.735679812E+03	 9.757500000E+02
 2.739301533E+03	 9.797500000E+02
 2.742921597E+03	 9.815000000E+02
 2.746540005E+03	 9.847500000E+02
 2.750156757E+03	 9.840000000E+02
 2.753771856E+03	 9.850000000E+02
 2.757385302E+03	 9.707500000E+02
 2.760997097E+03	 9.692500000E+02
 2.764607241E+03	 9.787500000E+02
 2.768215736E+03	 9.820000000E+02
 2.771822583E+03	 9.810000000E+02
 2.775427783E+03	 9.632500000E+02
 2.779031337E+03	 9.800000000E+02
 2.782633247E+03	 9.760000000E+02
 2.786233513E+03	 9.907500000E+02
 2.789832137E+03	 9.705000000E+02
 2.793429120E+03	 9.757500000E+02
 2.797024462E+03	 9.792500000E+02
 2.800618166E+03	 9.650000000E+02
 2.804210232E+03	 9.637500000E+02
 2.807800661E+03	 9.780000000E+02
 2.811389455E+03	 9.817500000E+02
 2.814976614E+03	 9.615000000E+02
 2.818562140E+03	 9.822500000E+02
 2.822146035E+03	 9.650000000E+02
 2.825728298E+03	 9.645000000E+02
 2.829308931E+03	 9.662500000E+02
 2.832887935E+03	 9.727500000E+02
 2.836465312E+03	 9.772500000E+02
 2.840041062E+03	 9.595000000E+02
 2.843615187E+03	 9.617500000E+02
 2.847187687E+03	 9.637500000E+02
 2.850758565E+03	 9.622500000E+02
 2.854327820E+03	 9.667500000E+02
 2.857895454E+03	 9.732500000E+02
 2.861461468E+03	 9.695000000E+02
 2.865025864E+03	 9.597500000E+02
 2.868588642E+03	 9.667500000E+02
 2.872149803E+03	 9.637500000E+02
 2.875709349E+03	 9.585000000E+02
 2.879267280E+03	 9.495000000E+02
 2.882823598E+03	 9.620000000E+02
 2.886378304E+03	 9.630000000E+02
 2.889931399E+03	 9.605000000E+02
 2.893482883E+03	 9.677500000E+02
 2.897032759E+03	 9.685000000E+02
 2.900581027E+03	 9.535000000E+02
 2.904127688E+03	 9.535000000E+02
 2.907672743E+03	 9.610000000E+02
 2.911216194E+03	 9.662500000E+02
 2.914758041E+03	 9.530000000E+02
 2.918298285E+03	 9.690000000E+02
 2.921836929E+03	 9.597500000E+02
 2.925373971E+03	 9.735000000E+02
 2.928909415E+03	 9.562500000E+02
 2.932443260E+03	 9.625000000E+02
 2.935975508E+03	 9.590000000E+02
 2.939506160E+03	 9.560000000E+02
 2.943035217E+03	 9.580000000E+02
 2.946562680E+03	 9.537500000E+02
 2.950088550E+03	 9.490000000E+02
 2.953612829E+03	 9.505000000E+02
 2.957135516E+03	 9.542500000E+02
 2.960656614E+03	 9.575000000E+02
 2.964176123E+03	 9.417500000E+02
 2.967694044E+03	 9.455000000E+02
 2.971210378E+03	 9.597500000E+02
 2.974725127E+03	 9.572500000E+02
 2.978238292E+03	 9.552500000E+02
 2.981749873E+03	 9.420000000E+02
 2.985259871E+03	 9.467500000E+02
 2.988768288E+03	 9.475000000E+02
 2.992275125E+03	 9.497500000E+02
 2.995780382E+03	 9.487500000E+02
 2.999284061E+03	 9.460000000E+02
 3.002786163E+03	 9.520000000E+02
 3.006286689E+03	 9.537500000E+02
 3.009785639E+03	 9.405000000E+02
 3.013283015E+03	 9.470000000E+02
 3.016778817E+03	 9.512500000E+02
 3.020273048E+03	 9.427500000E+02
 3.023765707E+03	 9.430000000E+02
 3.027256796E+03	 9.455000000E+02
 3.030746316E+03	 9.390000000E+02
 3.034234268E+03	 9.475000000E+02
 3.037720653E+03	 9.427500000E+02
 3.041205472E+03	 9.395000000E+02
 3.044688726E+03	 9.460000000E+02
 3.048170415E+03	 9.465000000E+02
 3.051650542E+03	 9.402500000E+02
 3.055129106E+03	 9.427500000E+02
 3.058606110E+03	 9.427500000E+02
 3.062081553E+03	 9.425000000E+02
 3.065555437E+03	 9.437500000E+02
 3.069027763E+03	 9.505000000E+02
 3.072498533E+03	 9.362500000E+02
 3.075967746E+03	 9.420000000E+02
 3.079435404E+03	 9.365000000E+02
 3.082901507E+03	 9.365000000E+02
 3.086366058E+03	 9.475000000E+02
 3.089829057E+03	 9.422500000E+02
 3.093290504E+03	 9.410000000E+02
 3.096750401E+03	 9.417500000E+02
 3.100208750E+03	 9.392500000E+02
 3.103665550E+03	 9.417500000E+02
 3.107120802E+03	 9.390000000E+02
 3.110574509E+03	 9.315000000E+02
 3.114026670E+03	 9.367500000E+02
 3.117477287E+03	 9.305000000E+02
 3.120926361E+03	 9.245000000E+02
 3.124373892E+03	 9.367500000E+02
 3.127819882E+03	 9.215000000E+02
 3.131264332E+03	 9.397500000E+02
 3.134707242E+03	 9.350000000E+02
 3.138148614E+03	 9.337500000E+02
 3.141588448E+03	 9.352500000E+02
 3.145026746E+03	 9.367500000E+02
 3.148463508E+03	 9.292500000E+02
 3.151898736E+03	 9.352500000E+02
 3.155332430E+03	 9.270000000E+02
 3.158764591E+03	 9.302500000E+02
 3.162195220E+03	 9.335000000E+02
 3.165624319E+03	 9.187500000E+02
 3.169051888E+03	 9.335000000E+02
 3.172477928E+03	 9.282500000E+02
 3.175902440E+03	 9.317500000E+02
 3.179325425E+03	 9.302500000E+02
 3.182746885E+03	 9.290000000E+02
 3.186166819E+03	 9.250000000E+02
 3.189585229E+03	 9.310000000E+02
 3.193002115E+03	 9.222500000E+02
 3.196417480E+03	 9.200000000E+02
 3.199831323E+03	 9.205000000E+02
 3.203243646E+03	 9.220000000E+02
 3.206654449E+03	 9.155000000E+02
 3.210063734E+03	 9.190000000E+02
 3.213471502E+03	 9.177500000E+02
 3.216877753E+03	 9.187500000E+02
 3.220282488E+03	 9.182500000E+02
 3.223685708E+03	 9.160000000E+02
 3.227087415E+03	 9.132500000E+02
 3.230487608E+03	 9.117500000E+02
 3.233886290E+03	 9.090000000E+02
 3.237283461E+03	 9.115000000E+02
 3.240679121E+03	 9.150000000E+02
 3.244073272E+03	 9.135000000E+02
 3.247465916E+03	 9.127500000E+02
 3.250857051E+03	 9.127500000E+02
 3.254246681E+03	 9.067500000E+02
 3.257634804E+03	 9.125000000E+02
 3.261021424E+03	 9.132500000E+02
 3.264406539E+03	 9.172500000E+02
 3.267790152E+03	 9.155000000E+02
 3.271172263E+03	 9.082500000E+02
 3.274552873E+03	 9.090000000E+02
 3.277931983E+03	 9.105000000E+02
 3.281309594E+03	 9.150000000E+02
 3.284685707E+03	 9.117500000E+02
 3.288060323E+03	 9.127500000E+02
 3.291433442E+03	 9.155000000E+02
 3.294805066E+03	 9.182500000E+02
 3.298175195E+03	 9.107500000E+02
 3.301543830E+03	 9.130000000E+02
 3.304910973E+03	 9.195000000E+02
 3.308276624E+03	 9.055000000E+02
 3.311640784E+03	 9.055000000E+02
 3.315003454E+03	 9.137500000E+02
 3.318364635E+03	 9.087500000E+02
 3.321724327E+03	 9.142500000E+02
 3.325082532E+03	 9.160000000E+02
 3.328439251E+03	 9.092500000E+02
 3.331794484E+03	 9.065000000E+02
 3.335148233E+03	 9.120000000E+02
 3.338500498E+03	 9.052500000E+02
 3.341851280E+03	 9.087500000E+02
 3.345200580E+03	 9.062500000E+02
 3.348548398E+03	 9.037500000E+02
 3.351894737E+03	 9.002500000E+02
 3.355239596E+03	 9.045000000E+02
 3.358582977E+03	 8.942500000E+02
 3.361924881E+03	 9.055000000E+02
 3.365265307E+03	 9.030000000E+02
 3.368604258E+03	 8.930000000E+02
 3.371941734E+03	 9.002500000E+02
 3.375277737E+03	 8.982500000E+02
 3.378612265E+03	 8.957500000E+02
 3.381945322E+03	 9.000000000E+02
 3.385276908E+03	 9.060000000E+02
 3.388607022E+03	 9.047500000E+02
 3.391935668E+03	 8.970000000E+02
 3.395262844E+03	 8.870000000E+02
 3.398588553E+03	 8.937500000E+02
 3.401912795E+03	 8.960000000E+02
 3.405235570E+03	 8.980000000E+02
 3.408556881E+03	 9.027500000E+02
 3.411876727E+03	 8.932500000E+02
 3.415195110E+03	 8.925000000E+02
 3.418512030E+03	 9.052500000E+02
 3.421827488E+03	 8.855000000E+02
 3.425141485E+03	 8.970000000E+02
 3.428454023E+03	 8.895000000E+02
 3.431765101E+03	 8.955000000E+02
 3.435074721E+03	 8.920000000E+02
 3.438382884E+03	 9.017500000E+02
 3.441689590E+03	 8.885000000E+02
 3.444994841E+03	 8.910000000E+02
 3.448298637E+03	 8.912500000E+02
 3.451600979E+03	 8.947500000E+02
 3.454901867E+03	 8.985000000E+02
 3.458201304E+03	 9.045000000E+02
 3.461499289E+03	 8.812500000E+02
 3.464795824E+03	 8.972500000E+02
 3.468090910E+03	 8.952500000E+02
 3.471384546E+03	 8.930000000E+02
 3.474676735E+03	 8.922500000E+02
 3.477967476E+03	 9.005000000E+02
 3.481256772E+03	 8.932500000E+02
 3.484544622E+03	 8.957500000E+02
 3.487831028E+03	 8.885000000E+02
 3.491115990E+03	 8.882500000E+02
 3.494399510E+03	 8.840000000E+02
 3.497681587E+03	 8.830000000E+02
 3.500962224E+03	 8.835000000E+02
 3.504241420E+03	 9.020000000E+02
 3.507519177E+03	 8.875000000E+02
 3.510795496E+03	 8.922500000E+02
 3.514070377E+03	 8.860000000E+02
 3.517343822E+03	 8.827500000E+02
 3.520615830E+03	 8.882500000E+02
 3.523886404E+03	 8.970000000E+02
 3.527155543E+03	 8.885000000E+02
 3.530423249E+03	 8.820000000E+02
 3.533689522E+03	 8.785000000E+02
 3.536954364E+03	 8.890000000E+02
 3.540217775E+03	 8.875000000E+02
 3.543479757E+03	 8.937500000E+02
 3.546740309E+03	 8.860000000E+02
 3.549999433E+03	 8.777500000E+02
 3.553257129E+03	 8.925000000E+02
 3.556513399E+03	 8.850000000E+02
 3.559768243E+03	 8.845000000E+02
 3.563021663E+03	 8.772500000E+02
 3.566273659E+03	 8.875000000E+02
 3.569524231E+03	 8.860000000E+02
 3.572773381E+03	 8.835000000E+02
 3.576021110E+03	 8.800000000E+02
 3.579267418E+03	 8.852500000E+02
 3.582512306E+03	 8.795000000E+02
 3.585755776E+03	 8.822500000E+02
 3.588997827E+03	 8.792500000E+02
 3.592238461E+03	 8.760000000E+02
 3.595477679E+03	 8.722500000E+02
 3.598715482E+03	 8.750000000E+02
 3.601951869E+03	 8.782500000E+02
 3.605186843E+03	 8.752500000E+02
 3.608420404E+03	 8.780000000E+02
 3.611652553E+03	 8.817500000E+02
 3.614883290E+03	 8.857500000E+02
 3.618112618E+03	 8.737500000E+02
 3.621340535E+03	 8.735000000E+02
 3.624567044E+03	 8.735000000E+02
 3.627792145E+03	 8.795000000E+02
 3.631015838E+03	 8.827500000E+02
 3.634238126E+03	 8.790000000E+02
 3.637459008E+03	 8.712500000E+02
 3.640678485E+03	 8.770000000E+02
 3.643896559E+03	 8.835000000E+02
 3.647113230E+03	 8.795000000E+02
 3.650328500E+03	 8.742500000E+02
 3.653542367E+03	 8.720000000E+02
 3.656754835E+03	 8.765000000E+02
 3.659965903E+03	 8.732500000E+02
 3.663175573E+03	 8.800000000E+02
 3.666383844E+03	 8.812500000E+02
 3.669590719E+03	 8.707500000E+02
 3.672796198E+03	 8.822500000E+02
 3.676000281E+03	 8.740000000E+02
 3.679202970E+03	 8.722500000E+02
 3.682404266E+03	 8.747500000E+02
 3.685604168E+03	 8.712500000E+02
 3.688802679E+03	 8.692500000E+02
 3.691999799E+03	 8.760000000E+02
 3.695195529E+03	 8.692500000E+02
 3.698389869E+03	 8.690000000E+02
 3.701582821E+03	 8.677500000E+02
 3.704774385E+03	 8.765000000E+02
 3.707964562E+03	 8.737500000E+02
 3.711153353E+03	 8.730000000E+02
 3.714340759E+03	 8.710000000E+02
 3.717526781E+03	 8.780000000E+02
 3.720711420E+03	 8.715000000E+02
 3.723894676E+03	 8.727500000E+02
 3.727076550E+03	 8.717500000E+02
 3.730257043E+03	 8.687500000E+02
 3.733436156E+03	 8.720000000E+02
 3.736613890E+03	 8.737500000E+02
 3.739790246E+03	 8.727500000E+02
 3.742965224E+03	 8.715000000E+02
 3.746138826E+03	 8.745000000E+02
 3.749311051E+03	 8.730000000E+02
 3.752481902E+03	 8.717500000E+02
 3.755651379E+03	 8.767500000E+02
 3.758819482E+03	 8.760000000E+02
 3.761986213E+03	 8.775000000E+02
 3.765151573E+03	 8.680000000E+02
 3.768315561E+03	 8.782500000E+02
 3.771478180E+03	 8.787500000E+02
 3.774639430E+03	 8.805000000E+02
 3.777799311E+03	 8.787500000E+02
 3.780957826E+03	 8.777500000E+02
 3.784114974E+03	 8.752500000E+02
 3.787270756E+03	 8.815000000E+02
 3.790425173E+03	 8.690000000E+02
 3.793578227E+03	 8.677500000E+02
 3.796729917E+03	 8.782500000E+02
 3.799880246E+03	 8.772500000E+02
 3.803029213E+03	 8.735000000E+02
 3.806176819E+03	 8.757500000E+02
 3.809323066E+03	 8.792500000E+02
 3.812467954E+03	 8.610000000E+02
 3.815611485E+03	 8.785000000E+02
 3.818753658E+03	 8.782500000E+02
 3.821894475E+03	 8.795000000E+02
 3.825033936E+03	 8.675000000E+02
 3.828172044E+03	 8.767500000E+02
 3.831308797E+03	 8.755000000E+02
 3.834444198E+03	 8.785000000E+02
 3.837578247E+03	 8.760000000E+02
 3.840710945E+03	 8.692500000E+02
 3.843842292E+03	 8.790000000E+02
 3.846972291E+03	 8.755000000E+02
 3.850100941E+03	 8.662500000E+02
 3.853228243E+03	 8.637500000E+02
 3.856354199E+03	 8.757500000E+02
 3.859478808E+03	 8.730000000E+02
 3.862602073E+03	 8.705000000E+02
 3.865723994E+03	 8.805000000E+02
 3.868844571E+03	 8.737500000E+02
 3.871963807E+03	 8.790000000E+02
 3.875081700E+03	 8.630000000E+02
 3.878198253E+03	 8.782500000E+02
 3.881313466E+03	 8.755000000E+02
 3.884427341E+03	 8.682500000E+02
 3.887539877E+03	 8.682500000E+02
 3.890651076E+03	 8.732500000E+02
 3.893760939E+03	 8.775000000E+02
 3.896869466E+03	 8.672500000E+02
 3.899976659E+03	 8.762500000E+02
 3.903082519E+03	 8.657500000E+02
 3.906187045E+03	 8.725000000E+02
 3.909290240E+03	 8.762500000E+02
 3.912392103E+03	 8.772500000E+02
 3.915492637E+03	 8.597500000E+02
 3.918591841E+03	 8.795000000E+02
 3.921689717E+03	 8.740000000E+02
 3.924786266E+03	 8.790000000E+02
 3.927881488E+03	 8.790000000E+02
 3.930975384E+03	 8.772500000E+02
 3.934067955E+03	 8.775000000E+02
 3.937159203E+03	 8.757500000E+02
 3.940249127E+03	 8.715000000E+02
 3.943337730E+03	 8.822500000E+02
 3.946425011E+03	 8.755000000E+02
 3.949510971E+03	 8.690000000E+02
 3.952595612E+03	 8.737500000E+02
 3.955678935E+03	 8.770000000E+02
 3.958760940E+03	 8.732500000E+02
 3.961841628E+03	 8.767500000E+02
 3.964921001E+03	 8.700000000E+02
 3.967999058E+03	 8.697500000E+02
 3.971075801E+03	 8.695000000E+02
 3.974151231E+03	 8.742500000E+02
 3.977225349E+03	 8.690000000E+02
 3.980298155E+03	 8.722500000E+02
 3.983369651E+03	 8.767500000E+02
 3.986439837E+03	 8.732500000E+02
 3.989508715E+03	 8.745000000E+02
 3.992576285E+03	 8.760000000E+02
 3.995642548E+03	 8.727500000E+02
 3.998707505E+03	 8.782500000E+02
 4.001771157E+03	 8.742500000E+02
 4.004833506E+03	 8.742500000E+02
 4.007894550E+03	 8.707500000E+02
 4.010954293E+03	 8.747500000E+02
 4.014012734E+03	 8.677500000E+02
 4.017069875E+03	 8.805000000E+02
 4.020125716E+03	 8.670000000E+02
 4.023180259E+03	 8.632500000E+02
 4.026233504E+03	 8.720000000E+02
 4.029285452E+03	 8.677500000E+02
 4.032336105E+03	 8.745000000E+02
 4.035385462E+03	 8.760000000E+02
 4.038433526E+03	 8.682500000E+02
 4.041480296E+03	 8.732500000E+02
 4.044525775E+03	 8.717500000E+02
