 2.687085382E+03	 7.210000000E+02
 2.687523861E+03	 7.220000000E+02
 2.687962297E+03	 7.210000000E+02
 2.688400689E+03	 7.130000000E+02
 2.688839038E+03	 7.260000000E+02
 2.689277342E+03	 7.175000000E+02
 2.689715602E+03	 7.130000000E+02
 2.690153819E+03	 7.145000000E+02
 2.690591992E+03	 7.160000000E+02
 2.691030121E+03	 7.185000000E+02
 2.691468206E+03	 7.180000000E+02
 2.691906247E+03	 7.130000000E+02
 2.692344245E+03	 7.085000000E+02
 2.692782198E+03	 7.150000000E+02
 2.693220108E+03	 7.085000000E+02
 2.693657974E+03	 7.080000000E+02
 2.694095796E+03	 7.005000000E+02
 2.694533574E+03	 7.050000000E+02
 2.694971309E+03	 7.115000000E+02
 2.695408999E+03	 6.980000000E+02
 2.695846646E+03	 7.015000000E+02
 2.696284249E+03	 7.035000000E+02
 2.696721808E+03	 7.035000000E+02
 2.697159324E+03	 7.010000000E+02
 2.697596795E+03	 7.110000000E+02
 2.698034223E+03	 7.025000000E+02
 2.698471607E+03	 6.965000000E+02
 2.698908947E+03	 7.055000000E+02
 2.699346243E+03	 7.045000000E+02
 2.699783496E+03	 7.010000000E+02
 2.700220704E+03	 7.005000000E+02
 2.700657869E+03	 7.005000000E+02
 2.701094990E+03	 7.065000000E+02
 2.701532068E+03	 7.010000000E+02
 2.701969101E+03	 7.090000000E+02
 2.702406091E+03	 7.005000000E+02
 2.702843037E+03	 7.025000000E+02
 2.703279939E+03	 7.020000000E+02
 2.703716797E+03	 6.985000000E+02
 2.704153612E+03	 6.980000000E+02
 2.704590383E+03	 7.030000000E+02
 2.705027110E+03	 6.980000000E+02
 2.705463793E+03	 6.985000000E+02
 2.705900433E+03	 7.010000000E+02
 2.706337028E+03	 6.965000000E+02
 2.706773580E+03	 6.955000000E+02
 2.707210089E+03	 7.015000000E+02
 2.707646553E+03	 6.990000000E+02
 2.708082974E+03	 6.950000000E+02
 2.708519351E+03	 7.120000000E+02
 2.708955684E+03	 6.980000000E+02
 2.709391973E+03	 7.020000000E+02
 2.709828219E+03	 6.965000000E+02
 2.710264421E+03	 6.975000000E+02
 2.710700579E+03	 7.005000000E+02
 2.711136694E+03	 6.905000000E+02
 2.711572765E+03	 7.030000000E+02
 2.712008792E+03	 6.995000000E+02
 2.712444775E+03	 6.960000000E+02
 2.712880714E+03	 6.950000000E+02
 2.713316610E+03	 6.970000000E+02
 2.713752462E+03	 7.010000000E+02
 2.714188271E+03	 7.030000000E+02
 2.714624035E+03	 6.960000000E+02
 2.715059756E+03	 6.995000000E+02
 2.715495433E+03	 6.955000000E+02
 2.715931067E+03	 6.995000000E+02
 2.716366657E+03	 6.940000000E+02
 2.716802203E+03	 6.960000000E+02
 2.717237705E+03	 6.960000000E+02
 2.717673164E+03	 6.970000000E+02
 2.718108579E+03	 7.040000000E+02
 2.718543950E+03	 6.990000000E+02
 2.718979277E+03	 6.970000000E+02
 2.719414561E+03	 6.985000000E+02
 2.719849801E+03	 6.990000000E+02
 2.720284998E+03	 6.960000000E+02
 2.720720151E+03	 7.005000000E+02
 2.721155260E+03	 7.025000000E+02
 2.721590325E+03	 7.000000000E+02
 2.722025347E+03	 6.925000000E+02
 2.722460325E+03	 6.975000000E+02
 2.722895259E+03	 6.960000000E+02
 2.723330150E+03	 6.985000000E+02
 2.723764997E+03	 6.945000000E+02
 2.724199800E+03	 6.980000000E+02
 2.724634560E+03	 6.955000000E+02
 2.725069276E+03	 6.970000000E+02
 2.725503948E+03	 6.975000000E+02
 2.725938577E+03	 6.960000000E+02
 2.726373162E+03	 6.990000000E+02
 2.726807703E+03	 6.985000000E+02
 2.727242201E+03	 6.965000000E+02
 2.727676655E+03	 6.970000000E+02
 2.728111065E+03	 6.985000000E+02
 2.728545432E+03	 6.970000000E+02
 2.728979755E+03	 6.990000000E+02
 2.729414034E+03	 7.030000000E+02
 2.729848270E+03	 7.000000000E+02
 2.730282462E+03	 7.015000000E+02
 2.730716611E+03	 6.985000000E+02
 2.731150716E+03	 6.980000000E+02
 2.731584777E+03	 6.900000000E+02
 2.732018795E+03	 6.970000000E+02
 2.732452769E+03	 7.010000000E+02
 2.732886699E+03	 6.940000000E+02
 2.733320586E+03	 7.025000000E+02
 2.733754429E+03	 6.925000000E+02
 2.734188229E+03	 6.980000000E+02
 2.734621984E+03	 7.015000000E+02
 2.735055697E+03	 6.990000000E+02
 2.735489365E+03	 6.955000000E+02
 2.735922991E+03	 7.010000000E+02
 2.736356572E+03	 6.950000000E+02
 2.736790110E+03	 6.960000000E+02
 2.737223604E+03	 6.935000000E+02
 2.737657055E+03	 6.930000000E+02
 2.738090462E+03	 7.010000000E+02
 2.738523825E+03	 6.915000000E+02
 2.738957145E+03	 6.940000000E+02
 2.739390421E+03	 6.930000000E+02
 2.739823654E+03	 6.935000000E+02
 2.740256843E+03	 6.990000000E+02
 2.740689989E+03	 6.990000000E+02
 2.741123091E+03	 6.960000000E+02
 2.741556149E+03	 6.950000000E+02
 2.741989164E+03	 6.950000000E+02
 2.742422135E+03	 6.965000000E+02
 2.742855063E+03	 6.920000000E+02
 2.743287947E+03	 6.990000000E+02
 2.743720787E+03	 6.960000000E+02
 2.744153584E+03	 6.930000000E+02
 2.744586338E+03	 6.955000000E+02
 2.745019048E+03	 6.990000000E+02
 2.745451714E+03	 6.900000000E+02
 2.745884337E+03	 6.985000000E+02
 2.746316916E+03	 6.900000000E+02
 2.746749451E+03	 6.960000000E+02
 2.747181943E+03	 6.880000000E+02
 2.747614392E+03	 6.960000000E+02
 2.748046797E+03	 6.955000000E+02
 2.748479158E+03	 6.980000000E+02
 2.748911476E+03	 6.980000000E+02
 2.749343751E+03	 7.020000000E+02
 2.749775982E+03	 7.015000000E+02
 2.750208169E+03	 6.950000000E+02
 2.750640313E+03	 6.960000000E+02
 2.751072413E+03	 6.940000000E+02
 2.751504470E+03	 6.985000000E+02
 2.751936483E+03	 6.935000000E+02
 2.752368452E+03	 6.960000000E+02
 2.752800379E+03	 6.945000000E+02
 2.753232261E+03	 6.950000000E+02
 2.753664100E+03	 6.950000000E+02
 2.754095896E+03	 6.940000000E+02
 2.754527648E+03	 6.970000000E+02
 2.754959357E+03	 6.985000000E+02
 2.755391022E+03	 6.915000000E+02
 2.755822643E+03	 6.955000000E+02
 2.756254222E+03	 6.910000000E+02
 2.756685756E+03	 6.945000000E+02
 2.757117247E+03	 6.960000000E+02
 2.757548695E+03	 6.900000000E+02
 2.757980099E+03	 6.995000000E+02
 2.758411460E+03	 7.000000000E+02
 2.758842777E+03	 7.010000000E+02
 2.759274050E+03	 6.935000000E+02
 2.759705281E+03	 6.980000000E+02
 2.760136467E+03	 6.975000000E+02
 2.760567611E+03	 6.960000000E+02
 2.760998710E+03	 6.980000000E+02
 2.761429767E+03	 6.940000000E+02
 2.761860780E+03	 6.985000000E+02
 2.762291749E+03	 6.950000000E+02
 2.762722675E+03	 6.935000000E+02
 2.763153557E+03	 6.885000000E+02
 2.763584396E+03	 6.945000000E+02
 2.764015192E+03	 6.940000000E+02
 2.764445944E+03	 6.945000000E+02
 2.764876653E+03	 6.965000000E+02
 2.765307318E+03	 6.965000000E+02
 2.765737939E+03	 6.920000000E+02
 2.766168518E+03	 6.900000000E+02
 2.766599053E+03	 6.995000000E+02
 2.767029544E+03	 6.940000000E+02
 2.767459992E+03	 7.000000000E+02
 2.767890396E+03	 6.905000000E+02
 2.768320758E+03	 6.960000000E+02
 2.768751075E+03	 6.960000000E+02
 2.769181349E+03	 6.925000000E+02
 2.769611580E+03	 6.955000000E+02
 2.770041768E+03	 6.990000000E+02
 2.770471912E+03	 7.010000000E+02
 2.770902012E+03	 6.955000000E+02
 2.771332069E+03	 6.910000000E+02
 2.771762083E+03	 6.925000000E+02
 2.772192053E+03	 6.935000000E+02
 2.772621980E+03	 6.980000000E+02
 2.773051864E+03	 6.935000000E+02
 2.773481704E+03	 6.945000000E+02
 2.773911501E+03	 6.955000000E+02
 2.774341254E+03	 6.910000000E+02
 2.774770964E+03	 6.935000000E+02
 2.775200630E+03	 6.965000000E+02
 2.775630253E+03	 6.935000000E+02
 2.776059833E+03	 6.900000000E+02
 2.776489369E+03	 6.960000000E+02
 2.776918862E+03	 6.950000000E+02
 2.777348312E+03	 6.950000000E+02
 2.777777718E+03	 6.895000000E+02
 2.778207081E+03	 6.965000000E+02
 2.778636400E+03	 6.895000000E+02
 2.779065676E+03	 6.910000000E+02
 2.779494909E+03	 6.920000000E+02
 2.779924098E+03	 6.980000000E+02
 2.780353244E+03	 6.955000000E+02
 2.780782347E+03	 6.960000000E+02
 2.781211406E+03	 6.950000000E+02
 2.781640422E+03	 6.905000000E+02
 2.782069394E+03	 6.935000000E+02
 2.782498324E+03	 6.955000000E+02
 2.782927209E+03	 6.945000000E+02
 2.783356052E+03	 6.920000000E+02
 2.783784851E+03	 6.990000000E+02
 2.784213607E+03	 6.995000000E+02
 2.784642319E+03	 6.905000000E+02
 2.785070988E+03	 6.930000000E+02
 2.785499614E+03	 6.960000000E+02
 2.785928196E+03	 6.975000000E+02
 2.786356735E+03	 6.925000000E+02
 2.786785231E+03	 6.955000000E+02
 2.787213683E+03	 6.970000000E+02
 2.787642092E+03	 6.935000000E+02
 2.788070458E+03	 6.905000000E+02
 2.788498781E+03	 6.965000000E+02
 2.788927060E+03	 6.925000000E+02
 2.789355295E+03	 6.860000000E+02
 2.789783488E+03	 6.970000000E+02
 2.790211637E+03	 6.885000000E+02
 2.790639743E+03	 6.935000000E+02
 2.791067805E+03	 7.000000000E+02
 2.791495825E+03	 6.910000000E+02
 2.791923801E+03	 6.985000000E+02
 2.792351733E+03	 6.930000000E+02
 2.792779623E+03	 6.900000000E+02
 2.793207469E+03	 6.960000000E+02
 2.793635271E+03	 6.885000000E+02
 2.794063031E+03	 6.925000000E+02
 2.794490747E+03	 6.920000000E+02
 2.794918420E+03	 6.950000000E+02
 2.795346050E+03	 6.980000000E+02
 2.795773636E+03	 6.960000000E+02
 2.796201179E+03	 6.935000000E+02
 2.796628679E+03	 6.945000000E+02
 2.797056135E+03	 6.935000000E+02
 2.797483548E+03	 6.925000000E+02
 2.797910918E+03	 6.930000000E+02
 2.798338245E+03	 6.940000000E+02
 2.798765528E+03	 6.955000000E+02
 2.799192769E+03	 6.955000000E+02
 2.799619965E+03	 6.940000000E+02
 2.800047119E+03	 6.985000000E+02
 2.800474229E+03	 6.935000000E+02
 2.800901297E+03	 6.935000000E+02
 2.801328321E+03	 6.960000000E+02
 2.801755301E+03	 6.965000000E+02
 2.802182239E+03	 6.940000000E+02
 2.802609133E+03	 6.980000000E+02
 2.803035984E+03	 6.930000000E+02
 2.803462791E+03	 6.890000000E+02
 2.803889556E+03	 7.170000000E+02
 2.804316277E+03	 6.895000000E+02
 2.804742955E+03	 6.995000000E+02
 2.805169590E+03	 6.965000000E+02
 2.805596181E+03	 6.965000000E+02
 2.806022729E+03	 6.965000000E+02
 2.806449234E+03	 6.935000000E+02
 2.806875696E+03	 6.995000000E+02
 2.807302115E+03	 6.940000000E+02
 2.807728490E+03	 6.920000000E+02
 2.808154822E+03	 6.965000000E+02
 2.808581111E+03	 6.910000000E+02
 2.809007357E+03	 6.950000000E+02
 2.809433560E+03	 6.880000000E+02
 2.809859719E+03	 6.885000000E+02
 2.810285835E+03	 6.880000000E+02
 2.810711908E+03	 6.915000000E+02
 2.811137938E+03	 6.955000000E+02
 2.811563925E+03	 6.930000000E+02
 2.811989868E+03	 6.940000000E+02
 2.812415768E+03	 6.945000000E+02
 2.812841625E+03	 6.940000000E+02
 2.813267439E+03	 6.960000000E+02
 2.813693210E+03	 6.910000000E+02
 2.814118937E+03	 6.940000000E+02
 2.814544622E+03	 6.965000000E+02
 2.814970263E+03	 6.930000000E+02
 2.815395861E+03	 6.895000000E+02
 2.815821415E+03	 6.990000000E+02
 2.816246927E+03	 6.930000000E+02
 2.816672396E+03	 6.950000000E+02
 2.817097821E+03	 6.940000000E+02
 2.817523203E+03	 6.925000000E+02
 2.817948542E+03	 6.910000000E+02
 2.818373838E+03	 6.925000000E+02
 2.818799090E+03	 6.960000000E+02
 2.819224300E+03	 6.920000000E+02
 2.819649466E+03	 6.965000000E+02
 2.820074590E+03	 6.935000000E+02
 2.820499670E+03	 6.935000000E+02
 2.820924707E+03	 6.880000000E+02
 2.821349700E+03	 6.945000000E+02
 2.821774651E+03	 6.890000000E+02
 2.822199559E+03	 6.995000000E+02
 2.822624423E+03	 6.840000000E+02
 2.823049244E+03	 6.915000000E+02
 2.823474022E+03	 6.970000000E+02
 2.823898757E+03	 6.960000000E+02
 2.824323449E+03	 6.920000000E+02
 2.824748098E+03	 6.935000000E+02
 2.825172704E+03	 6.900000000E+02
 2.825597266E+03	 6.925000000E+02
 2.826021786E+03	 6.950000000E+02
 2.826446262E+03	 6.880000000E+02
 2.826870695E+03	 6.960000000E+02
 2.827295085E+03	 6.885000000E+02
 2.827719433E+03	 6.890000000E+02
 2.828143736E+03	 6.970000000E+02
 2.828567997E+03	 6.940000000E+02
 2.828992215E+03	 6.935000000E+02
 2.829416390E+03	 6.945000000E+02
 2.829840521E+03	 6.935000000E+02
 2.830264610E+03	 6.970000000E+02
 2.830688655E+03	 6.955000000E+02
 2.831112657E+03	 6.935000000E+02
 2.831536616E+03	 6.940000000E+02
 2.831960533E+03	 6.975000000E+02
 2.832384406E+03	 6.905000000E+02
 2.832808236E+03	 6.930000000E+02
 2.833232023E+03	 6.955000000E+02
 2.833655766E+03	 6.935000000E+02
 2.834079467E+03	 6.930000000E+02
 2.834503125E+03	 6.990000000E+02
 2.834926740E+03	 6.945000000E+02
 2.835350311E+03	 6.945000000E+02
 2.835773840E+03	 6.930000000E+02
 2.836197325E+03	 6.905000000E+02
 2.836620768E+03	 6.945000000E+02
 2.837044167E+03	 6.965000000E+02
 2.837467523E+03	 6.910000000E+02
 2.837890837E+03	 6.925000000E+02
 2.838314107E+03	 6.935000000E+02
 2.838737334E+03	 6.915000000E+02
 2.839160518E+03	 7.010000000E+02
 2.839583659E+03	 6.890000000E+02
 2.840006757E+03	 6.955000000E+02
 2.840429813E+03	 6.955000000E+02
 2.840852825E+03	 6.890000000E+02
 2.841275794E+03	 6.960000000E+02
 2.841698720E+03	 6.925000000E+02
 2.842121603E+03	 6.920000000E+02
 2.842544443E+03	 6.905000000E+02
 2.842967239E+03	 7.005000000E+02
 2.843389993E+03	 6.965000000E+02
 2.843812704E+03	 6.950000000E+02
 2.844235372E+03	 6.835000000E+02
 2.844657997E+03	 6.875000000E+02
 2.845080579E+03	 6.910000000E+02
 2.845503118E+03	 6.990000000E+02
 2.845925614E+03	 6.925000000E+02
 2.846348067E+03	 6.900000000E+02
 2.846770477E+03	 6.930000000E+02
 2.847192844E+03	 7.040000000E+02
 2.847615168E+03	 6.960000000E+02
 2.848037448E+03	 6.935000000E+02
 2.848459686E+03	 6.950000000E+02
 2.848881881E+03	 6.975000000E+02
 2.849304033E+03	 6.930000000E+02
 2.849726142E+03	 6.960000000E+02
 2.850148208E+03	 6.925000000E+02
 2.850570232E+03	 6.920000000E+02
 2.850992212E+03	 6.940000000E+02
 2.851414149E+03	 6.935000000E+02
 2.851836043E+03	 6.915000000E+02
 2.852257894E+03	 6.895000000E+02
 2.852679702E+03	 6.945000000E+02
 2.853101468E+03	 6.905000000E+02
 2.853523190E+03	 6.895000000E+02
 2.853944869E+03	 6.930000000E+02
 2.854366506E+03	 6.970000000E+02
 2.854788099E+03	 6.965000000E+02
 2.855209650E+03	 6.940000000E+02
 2.855631157E+03	 7.095000000E+02
 2.856052622E+03	 6.985000000E+02
 2.856474044E+03	 6.880000000E+02
 2.856895423E+03	 6.910000000E+02
 2.857316758E+03	 6.885000000E+02
 2.857738051E+03	 6.895000000E+02
 2.858159301E+03	 6.955000000E+02
 2.858580508E+03	 6.950000000E+02
 2.859001673E+03	 6.945000000E+02
 2.859422794E+03	 6.940000000E+02
 2.859843872E+03	 6.950000000E+02
 2.860264907E+03	 6.895000000E+02
 2.860685900E+03	 6.915000000E+02
 2.861106850E+03	 6.925000000E+02
 2.861527756E+03	 6.930000000E+02
 2.861948620E+03	 6.935000000E+02
 2.862369441E+03	 7.005000000E+02
 2.862790219E+03	 6.890000000E+02
 2.863210954E+03	 6.930000000E+02
 2.863631646E+03	 6.925000000E+02
 2.864052295E+03	 6.935000000E+02
 2.864472901E+03	 6.915000000E+02
 2.864893465E+03	 6.975000000E+02
 2.865313985E+03	 6.915000000E+02
 2.865734463E+03	 6.930000000E+02
 2.866154898E+03	 6.920000000E+02
 2.866575290E+03	 6.980000000E+02
 2.866995639E+03	 6.950000000E+02
 2.867415945E+03	 6.915000000E+02
 2.867836208E+03	 6.940000000E+02
 2.868256429E+03	 6.910000000E+02
 2.868676606E+03	 6.970000000E+02
 2.869096741E+03	 6.910000000E+02
 2.869516833E+03	 6.945000000E+02
 2.869936882E+03	 6.885000000E+02
 2.870356888E+03	 6.930000000E+02
 2.870776851E+03	 6.895000000E+02
 2.871196772E+03	 6.915000000E+02
 2.871616649E+03	 6.870000000E+02
 2.872036484E+03	 6.930000000E+02
 2.872456276E+03	 6.915000000E+02
 2.872876025E+03	 6.965000000E+02
 2.873295731E+03	 6.970000000E+02
 2.873715394E+03	 6.950000000E+02
 2.874135015E+03	 6.905000000E+02
 2.874554592E+03	 6.930000000E+02
 2.874974127E+03	 6.905000000E+02
 2.875393619E+03	 6.925000000E+02
 2.875813068E+03	 6.960000000E+02
 2.876232475E+03	 6.935000000E+02
 2.876651838E+03	 6.850000000E+02
 2.877071159E+03	 6.955000000E+02
 2.877490437E+03	 6.940000000E+02
 2.877909672E+03	 6.895000000E+02
 2.878328864E+03	 6.950000000E+02
 2.878748014E+03	 6.930000000E+02
 2.879167120E+03	 6.910000000E+02
 2.879586184E+03	 6.895000000E+02
 2.880005205E+03	 6.940000000E+02
 2.880424183E+03	 6.920000000E+02
 2.880843119E+03	 6.930000000E+02
 2.881262011E+03	 6.920000000E+02
 2.881680861E+03	 6.885000000E+02
 2.882099668E+03	 6.960000000E+02
 2.882518433E+03	 6.940000000E+02
 2.882937154E+03	 6.915000000E+02
 2.883355833E+03	 6.885000000E+02
 2.883774469E+03	 6.920000000E+02
 2.884193062E+03	 6.955000000E+02
 2.884611612E+03	 6.940000000E+02
 2.885030120E+03	 6.895000000E+02
 2.885448585E+03	 7.010000000E+02
 2.885867007E+03	 6.970000000E+02
 2.886285386E+03	 6.930000000E+02
 2.886703723E+03	 6.910000000E+02
 2.887122016E+03	 6.840000000E+02
 2.887540267E+03	 6.915000000E+02
 2.887958476E+03	 6.920000000E+02
 2.888376641E+03	 6.905000000E+02
 2.888794764E+03	 6.985000000E+02
 2.889212844E+03	 6.920000000E+02
 2.889630881E+03	 6.955000000E+02
 2.890048876E+03	 6.945000000E+02
 2.890466827E+03	 7.895000000E+02
 2.890884736E+03	 7.945000000E+02
 2.891302603E+03	 6.975000000E+02
 2.891720426E+03	 6.910000000E+02
 2.892138207E+03	 6.930000000E+02
 2.892555945E+03	 6.945000000E+02
 2.892973641E+03	 6.895000000E+02
 2.893391293E+03	 6.940000000E+02
 2.893808903E+03	 6.915000000E+02
 2.894226470E+03	 6.930000000E+02
 2.894643995E+03	 6.900000000E+02
 2.895061477E+03	 6.920000000E+02
 2.895478916E+03	 6.930000000E+02
 2.895896312E+03	 6.925000000E+02
 2.896313666E+03	 6.890000000E+02
 2.896730977E+03	 6.890000000E+02
 2.897148245E+03	 6.930000000E+02
 2.897565470E+03	 6.915000000E+02
 2.897982653E+03	 6.950000000E+02
 2.898399793E+03	 6.885000000E+02
 2.898816891E+03	 6.880000000E+02
 2.899233946E+03	 6.860000000E+02
 2.899650958E+03	 6.995000000E+02
 2.900067927E+03	 6.940000000E+02
 2.900484854E+03	 6.930000000E+02
 2.900901738E+03	 6.920000000E+02
 2.901318579E+03	 6.905000000E+02
 2.901735378E+03	 6.900000000E+02
 2.902152134E+03	 6.915000000E+02
 2.902568847E+03	 6.950000000E+02
 2.902985518E+03	 6.890000000E+02
 2.903402146E+03	 6.915000000E+02
 2.903818731E+03	 6.890000000E+02
 2.904235274E+03	 6.945000000E+02
 2.904651774E+03	 6.865000000E+02
 2.905068231E+03	 6.955000000E+02
 2.905484646E+03	 6.940000000E+02
 2.905901018E+03	 6.910000000E+02
 2.906317347E+03	 6.935000000E+02
 2.906733634E+03	 6.900000000E+02
 2.907149878E+03	 6.925000000E+02
 2.907566080E+03	 6.925000000E+02
 2.907982238E+03	 6.905000000E+02
 2.908398355E+03	 6.900000000E+02
 2.908814428E+03	 6.915000000E+02
 2.909230459E+03	 6.915000000E+02
 2.909646447E+03	 6.965000000E+02
 2.910062393E+03	 6.920000000E+02
 2.910478296E+03	 6.865000000E+02
 2.910894156E+03	 6.980000000E+02
 2.911309974E+03	 6.925000000E+02
 2.911725749E+03	 6.930000000E+02
 2.912141482E+03	 6.895000000E+02
 2.912557172E+03	 6.915000000E+02
 2.912972819E+03	 6.975000000E+02
 2.913388424E+03	 6.955000000E+02
 2.913803986E+03	 6.955000000E+02
 2.914219506E+03	 6.930000000E+02
 2.914634983E+03	 6.855000000E+02
 2.915050417E+03	 6.930000000E+02
 2.915465809E+03	 6.900000000E+02
 2.915881158E+03	 6.910000000E+02
 2.916296464E+03	 6.950000000E+02
 2.916711728E+03	 6.900000000E+02
 2.917126950E+03	 6.885000000E+02
 2.917542129E+03	 6.925000000E+02
 2.917957265E+03	 6.915000000E+02
 2.918372359E+03	 6.855000000E+02
 2.918787410E+03	 6.915000000E+02
 2.919202418E+03	 6.865000000E+02
 2.919617384E+03	 6.925000000E+02
 2.920032307E+03	 6.925000000E+02
 2.920447188E+03	 6.925000000E+02
 2.920862026E+03	 6.965000000E+02
 2.921276822E+03	 6.945000000E+02
 2.921691575E+03	 6.875000000E+02
 2.922106286E+03	 6.930000000E+02
 2.922520954E+03	 6.855000000E+02
 2.922935579E+03	 6.905000000E+02
 2.923350162E+03	 6.960000000E+02
 2.923764703E+03	 6.910000000E+02
 2.924179200E+03	 6.915000000E+02
 2.924593656E+03	 6.950000000E+02
 2.925008068E+03	 6.965000000E+02
 2.925422439E+03	 6.905000000E+02
 2.925836766E+03	 6.910000000E+02
 2.926251051E+03	 6.950000000E+02
 2.926665294E+03	 6.885000000E+02
 2.927079494E+03	 6.925000000E+02
 2.927493652E+03	 6.905000000E+02
 2.927907767E+03	 6.930000000E+02
 2.928321839E+03	 6.915000000E+02
 2.928735869E+03	 6.890000000E+02
 2.929149857E+03	 6.855000000E+02
 2.929563802E+03	 6.945000000E+02
 2.929977704E+03	 6.915000000E+02
 2.930391564E+03	 6.925000000E+02
 2.930805382E+03	 6.945000000E+02
 2.931219157E+03	 6.905000000E+02
 2.931632889E+03	 6.895000000E+02
 2.932046579E+03	 6.900000000E+02
 2.932460227E+03	 6.875000000E+02
 2.932873832E+03	 6.940000000E+02
 2.933287394E+03	 6.920000000E+02
 2.933700914E+03	 6.920000000E+02
 2.934114392E+03	 6.880000000E+02
 2.934527827E+03	 6.930000000E+02
 2.934941219E+03	 6.915000000E+02
 2.935354569E+03	 6.905000000E+02
 2.935767877E+03	 6.905000000E+02
 2.936181142E+03	 6.905000000E+02
 2.936594365E+03	 6.900000000E+02
 2.937007545E+03	 6.930000000E+02
 2.937420683E+03	 6.925000000E+02
 2.937833778E+03	 6.980000000E+02
 2.938246831E+03	 6.905000000E+02
 2.938659841E+03	 6.975000000E+02
 2.939072809E+03	 6.905000000E+02
 2.939485735E+03	 6.915000000E+02
 2.939898618E+03	 6.915000000E+02
 2.940311458E+03	 6.960000000E+02
 2.940724256E+03	 6.885000000E+02
 2.941137012E+03	 6.895000000E+02
 2.941549725E+03	 6.915000000E+02
 2.941962396E+03	 6.890000000E+02
 2.942375024E+03	 6.950000000E+02
 2.942787610E+03	 6.935000000E+02
 2.943200154E+03	 6.865000000E+02
 2.943612655E+03	 6.920000000E+02
 2.944025114E+03	 6.890000000E+02
 2.944437530E+03	 6.930000000E+02
 2.944849904E+03	 6.900000000E+02
 2.945262235E+03	 6.880000000E+02
 2.945674524E+03	 6.940000000E+02
 2.946086771E+03	 6.960000000E+02
 2.946498975E+03	 6.875000000E+02
 2.946911137E+03	 6.945000000E+02
 2.947323256E+03	 6.900000000E+02
 2.947735333E+03	 6.890000000E+02
 2.948147367E+03	 6.905000000E+02
 2.948559360E+03	 6.940000000E+02
 2.948971309E+03	 6.960000000E+02
 2.949383217E+03	 6.930000000E+02
 2.949795082E+03	 6.895000000E+02
 2.950206904E+03	 6.950000000E+02
 2.950618684E+03	 6.925000000E+02
 2.951030422E+03	 6.890000000E+02
 2.951442118E+03	 6.910000000E+02
 2.951853771E+03	 6.875000000E+02
 2.952265381E+03	 6.960000000E+02
 2.952676950E+03	 6.855000000E+02
 2.953088476E+03	 6.925000000E+02
 2.953499959E+03	 6.950000000E+02
 2.953911400E+03	 6.910000000E+02
 2.954322799E+03	 6.915000000E+02
 2.954734156E+03	 6.965000000E+02
 2.955145470E+03	 7.005000000E+02
 2.955556742E+03	 6.910000000E+02
 2.955967971E+03	 6.880000000E+02
 2.956379158E+03	 6.855000000E+02
 2.956790303E+03	 6.905000000E+02
 2.957201405E+03	 6.930000000E+02
 2.957612465E+03	 6.950000000E+02
 2.958023483E+03	 6.925000000E+02
 2.958434458E+03	 6.905000000E+02
 2.958845391E+03	 6.915000000E+02
 2.959256282E+03	 6.900000000E+02
 2.959667130E+03	 6.940000000E+02
 2.960077936E+03	 6.885000000E+02
 2.960488700E+03	 6.900000000E+02
 2.960899421E+03	 6.895000000E+02
 2.961310100E+03	 6.965000000E+02
 2.961720737E+03	 6.900000000E+02
 2.962131332E+03	 6.940000000E+02
 2.962541884E+03	 6.920000000E+02
 2.962952393E+03	 6.895000000E+02
 2.963362861E+03	 6.905000000E+02
 2.963773286E+03	 6.875000000E+02
 2.964183669E+03	 6.905000000E+02
 2.964594010E+03	 6.860000000E+02
 2.965004308E+03	 6.910000000E+02
 2.965414564E+03	 6.915000000E+02
 2.965824778E+03	 6.955000000E+02
 2.966234949E+03	 6.915000000E+02
 2.966645078E+03	 6.860000000E+02
 2.967055165E+03	 6.860000000E+02
 2.967465209E+03	 6.920000000E+02
 2.967875212E+03	 6.905000000E+02
 2.968285172E+03	 6.815000000E+02
 2.968695089E+03	 6.920000000E+02
 2.969104965E+03	 6.925000000E+02
 2.969514798E+03	 6.895000000E+02
 2.969924589E+03	 6.890000000E+02
 2.970334337E+03	 6.925000000E+02
 2.970744044E+03	 6.905000000E+02
 2.971153708E+03	 6.905000000E+02
 2.971563330E+03	 6.940000000E+02
 2.971972909E+03	 6.910000000E+02
 2.972382447E+03	 6.920000000E+02
 2.972791942E+03	 6.880000000E+02
 2.973201395E+03	 6.930000000E+02
 2.973610805E+03	 6.880000000E+02
 2.974020174E+03	 6.920000000E+02
 2.974429500E+03	 6.860000000E+02
 2.974838783E+03	 6.910000000E+02
 2.975248025E+03	 6.850000000E+02
 2.975657225E+03	 6.880000000E+02
 2.976066382E+03	 7.030000000E+02
 2.976475497E+03	 6.925000000E+02
 2.976884569E+03	 6.880000000E+02
 2.977293600E+03	 6.935000000E+02
 2.977702588E+03	 6.880000000E+02
 2.978111534E+03	 6.955000000E+02
 2.978520438E+03	 6.945000000E+02
 2.978929300E+03	 6.935000000E+02
 2.979338119E+03	 6.895000000E+02
 2.979746896E+03	 6.965000000E+02
 2.980155631E+03	 6.900000000E+02
 2.980564324E+03	 6.915000000E+02
 2.980972975E+03	 6.875000000E+02
 2.981381583E+03	 6.915000000E+02
 2.981790149E+03	 6.875000000E+02
 2.982198673E+03	 6.915000000E+02
 2.982607155E+03	 6.880000000E+02
 2.983015595E+03	 6.965000000E+02
 2.983423992E+03	 6.995000000E+02
 2.983832347E+03	 6.905000000E+02
 2.984240660E+03	 6.910000000E+02
 2.984648931E+03	 6.885000000E+02
 2.985057160E+03	 6.935000000E+02
 2.985465346E+03	 6.830000000E+02
 2.985873491E+03	 6.890000000E+02
 2.986281593E+03	 6.885000000E+02
 2.986689653E+03	 6.890000000E+02
 2.987097671E+03	 6.905000000E+02
 2.987505647E+03	 6.875000000E+02
 2.987913580E+03	 6.900000000E+02
 2.988321471E+03	 6.910000000E+02
 2.988729321E+03	 6.930000000E+02
 2.989137128E+03	 6.935000000E+02
 2.989544893E+03	 6.885000000E+02
 2.989952615E+03	 6.915000000E+02
 2.990360296E+03	 6.910000000E+02
 2.990767935E+03	 6.900000000E+02
 2.991175531E+03	 6.885000000E+02
 2.991583085E+03	 6.965000000E+02
 2.991990597E+03	 6.940000000E+02
 2.992398067E+03	 6.860000000E+02
 2.992805495E+03	 6.885000000E+02
 2.993212881E+03	 6.935000000E+02
 2.993620224E+03	 6.875000000E+02
 2.994027526E+03	 6.920000000E+02
 2.994434785E+03	 6.935000000E+02
 2.994842002E+03	 6.885000000E+02
 2.995249178E+03	 6.910000000E+02
 2.995656311E+03	 6.855000000E+02
 2.996063401E+03	 6.935000000E+02
 2.996470450E+03	 6.880000000E+02
 2.996877457E+03	 6.890000000E+02
 2.997284421E+03	 6.930000000E+02
 2.997691344E+03	 6.880000000E+02
 2.998098224E+03	 6.885000000E+02
 2.998505063E+03	 6.845000000E+02
 2.998911859E+03	 6.935000000E+02
 2.999318613E+03	 6.890000000E+02
 2.999725325E+03	 6.910000000E+02
 3.000131995E+03	 6.865000000E+02
 3.000538623E+03	 6.900000000E+02
 3.000945209E+03	 6.870000000E+02
 3.001351752E+03	 6.940000000E+02
 3.001758254E+03	 6.895000000E+02
 3.002164713E+03	 6.920000000E+02
 3.002571131E+03	 6.925000000E+02
 3.002977506E+03	 6.990000000E+02
 3.003383840E+03	 6.850000000E+02
 3.003790131E+03	 6.915000000E+02
 3.004196380E+03	 6.920000000E+02
 3.004602587E+03	 6.870000000E+02
 3.005008753E+03	 6.930000000E+02
 3.005414876E+03	 6.880000000E+02
 3.005820957E+03	 6.860000000E+02
 3.006226996E+03	 6.885000000E+02
 3.006632993E+03	 6.910000000E+02
 3.007038948E+03	 6.880000000E+02
 3.007444860E+03	 6.955000000E+02
 3.007850731E+03	 6.970000000E+02
 3.008256560E+03	 6.930000000E+02
 3.008662347E+03	 6.890000000E+02
 3.009068091E+03	 6.870000000E+02
 3.009473794E+03	 6.900000000E+02
 3.009879455E+03	 6.965000000E+02
 3.010285074E+03	 6.890000000E+02
 3.010690650E+03	 6.935000000E+02
 3.011096185E+03	 6.890000000E+02
 3.011501677E+03	 6.950000000E+02
 3.011907128E+03	 6.895000000E+02
 3.012312537E+03	 6.915000000E+02
 3.012717903E+03	 6.920000000E+02
 3.013123228E+03	 6.865000000E+02
 3.013528510E+03	 6.925000000E+02
 3.013933751E+03	 6.865000000E+02
 3.014338950E+03	 6.915000000E+02
 3.014744106E+03	 6.890000000E+02
 3.015149221E+03	 6.855000000E+02
 3.015554293E+03	 6.960000000E+02
 3.015959324E+03	 6.885000000E+02
 3.016364313E+03	 6.910000000E+02
 3.016769259E+03	 6.895000000E+02
 3.017174164E+03	 6.910000000E+02
 3.017579027E+03	 6.940000000E+02
 3.017983847E+03	 6.875000000E+02
 3.018388626E+03	 6.935000000E+02
 3.018793363E+03	 6.910000000E+02
 3.019198058E+03	 6.990000000E+02
 3.019602711E+03	 6.880000000E+02
 3.020007322E+03	 6.905000000E+02
 3.020411890E+03	 6.865000000E+02
 3.020816417E+03	 6.930000000E+02
 3.021220902E+03	 6.955000000E+02
 3.021625346E+03	 6.870000000E+02
 3.022029747E+03	 6.850000000E+02
 3.022434106E+03	 6.900000000E+02
 3.022838423E+03	 6.885000000E+02
 3.023242698E+03	 6.900000000E+02
 3.023646932E+03	 6.860000000E+02
 3.024051123E+03	 6.915000000E+02
 3.024455273E+03	 6.890000000E+02
 3.024859380E+03	 6.850000000E+02
 3.025263446E+03	 6.910000000E+02
 3.025667470E+03	 6.905000000E+02
 3.026071451E+03	 6.880000000E+02
 3.026475391E+03	 6.930000000E+02
 3.026879289E+03	 6.865000000E+02
 3.027283145E+03	 6.905000000E+02
 3.027686959E+03	 6.880000000E+02
 3.028090732E+03	 6.905000000E+02
 3.028494462E+03	 6.860000000E+02
 3.028898150E+03	 6.875000000E+02
 3.029301797E+03	 6.890000000E+02
 3.029705401E+03	 6.880000000E+02
 3.030108964E+03	 6.865000000E+02
 3.030512485E+03	 6.885000000E+02
 3.030915964E+03	 6.925000000E+02
 3.031319401E+03	 6.845000000E+02
 3.031722796E+03	 6.910000000E+02
 3.032126149E+03	 6.860000000E+02
 3.032529461E+03	 6.910000000E+02
 3.032932730E+03	 6.875000000E+02
 3.033335958E+03	 6.885000000E+02
 3.033739143E+03	 6.860000000E+02
 3.034142287E+03	 6.895000000E+02
 3.034545389E+03	 6.895000000E+02
 3.034948449E+03	 6.885000000E+02
 3.035351468E+03	 6.850000000E+02
 3.035754444E+03	 6.900000000E+02
 3.036157379E+03	 6.850000000E+02
 3.036560271E+03	 6.920000000E+02
 3.036963122E+03	 6.870000000E+02
 3.037365931E+03	 6.870000000E+02
 3.037768698E+03	 6.950000000E+02
 3.038171423E+03	 6.905000000E+02
 3.038574107E+03	 6.895000000E+02
 3.038976748E+03	 6.860000000E+02
 3.039379348E+03	 6.940000000E+02
 3.039781906E+03	 6.910000000E+02
 3.040184422E+03	 6.895000000E+02
 3.040586896E+03	 6.875000000E+02
 3.040989329E+03	 6.830000000E+02
 3.041391719E+03	 6.980000000E+02
 3.041794068E+03	 6.915000000E+02
 3.042196375E+03	 6.925000000E+02
 3.042598640E+03	 6.880000000E+02
 3.043000863E+03	 6.890000000E+02
 3.043403045E+03	 6.835000000E+02
 3.043805185E+03	 6.930000000E+02
 3.044207282E+03	 6.890000000E+02
 3.044609339E+03	 6.855000000E+02
 3.045011353E+03	 6.905000000E+02
 3.045413325E+03	 6.875000000E+02
 3.045815256E+03	 6.850000000E+02
 3.046217145E+03	 6.885000000E+02
 3.046618992E+03	 6.845000000E+02
 3.047020797E+03	 6.880000000E+02
 3.047422560E+03	 6.930000000E+02
 3.047824282E+03	 6.855000000E+02
 3.048225962E+03	 6.885000000E+02
 3.048627600E+03	 6.875000000E+02
 3.049029196E+03	 6.850000000E+02
 3.049430751E+03	 6.905000000E+02
 3.049832264E+03	 6.995000000E+02
 3.050233735E+03	 6.865000000E+02
 3.050635164E+03	 6.885000000E+02
 3.051036552E+03	 6.900000000E+02
 3.051437897E+03	 6.870000000E+02
 3.051839201E+03	 6.890000000E+02
 3.052240463E+03	 6.920000000E+02
 3.052641684E+03	 6.910000000E+02
 3.053042863E+03	 6.855000000E+02
 3.053443999E+03	 6.825000000E+02
 3.053845095E+03	 6.840000000E+02
 3.054246148E+03	 6.925000000E+02
 3.054647160E+03	 6.885000000E+02
 3.055048130E+03	 6.865000000E+02
 3.055449058E+03	 6.815000000E+02
 3.055849944E+03	 6.845000000E+02
 3.056250789E+03	 6.845000000E+02
 3.056651592E+03	 6.925000000E+02
 3.057052353E+03	 6.885000000E+02
 3.057453073E+03	 6.910000000E+02
 3.057853751E+03	 6.910000000E+02
 3.058254387E+03	 6.955000000E+02
 3.058654981E+03	 6.865000000E+02
 3.059055534E+03	 6.895000000E+02
 3.059456045E+03	 6.865000000E+02
 3.059856514E+03	 6.875000000E+02
 3.060256942E+03	 6.870000000E+02
 3.060657328E+03	 6.880000000E+02
 3.061057672E+03	 6.860000000E+02
 3.061457974E+03	 6.840000000E+02
 3.061858235E+03	 6.875000000E+02
 3.062258454E+03	 6.890000000E+02
 3.062658631E+03	 6.875000000E+02
 3.063058767E+03	 6.890000000E+02
 3.063458861E+03	 6.900000000E+02
 3.063858913E+03	 6.880000000E+02
 3.064258924E+03	 6.910000000E+02
 3.064658893E+03	 6.840000000E+02
 3.065058820E+03	 6.875000000E+02
 3.065458705E+03	 6.865000000E+02
 3.065858549E+03	 6.930000000E+02
 3.066258352E+03	 6.865000000E+02
 3.066658112E+03	 6.900000000E+02
 3.067057831E+03	 6.860000000E+02
 3.067457508E+03	 6.850000000E+02
 3.067857144E+03	 6.885000000E+02
 3.068256738E+03	 6.865000000E+02
 3.068656290E+03	 6.845000000E+02
 3.069055801E+03	 6.910000000E+02
 3.069455270E+03	 6.915000000E+02
 3.069854697E+03	 6.880000000E+02
 3.070254082E+03	 6.815000000E+02
 3.070653426E+03	 6.885000000E+02
 3.071052729E+03	 6.860000000E+02
 3.071451990E+03	 6.890000000E+02
 3.071851209E+03	 6.915000000E+02
 3.072250386E+03	 6.850000000E+02
 3.072649522E+03	 6.865000000E+02
 3.073048616E+03	 6.885000000E+02
 3.073447669E+03	 6.900000000E+02
 3.073846680E+03	 6.890000000E+02
 3.074245649E+03	 6.910000000E+02
 3.074644577E+03	 6.780000000E+02
 3.075043463E+03	 6.940000000E+02
 3.075442307E+03	 6.890000000E+02
 3.075841110E+03	 6.870000000E+02
 3.076239872E+03	 6.900000000E+02
 3.076638591E+03	 6.840000000E+02
 3.077037269E+03	 6.910000000E+02
 3.077435906E+03	 6.835000000E+02
 3.077834501E+03	 6.865000000E+02
 3.078233054E+03	 6.920000000E+02
 3.078631566E+03	 6.875000000E+02
 3.079030036E+03	 6.880000000E+02
 3.079428464E+03	 6.860000000E+02
 3.079826851E+03	 6.870000000E+02
 3.080225197E+03	 6.855000000E+02
 3.080623500E+03	 6.900000000E+02
 3.081021763E+03	 6.920000000E+02
 3.081419983E+03	 6.905000000E+02
 3.081818162E+03	 6.870000000E+02
 3.082216300E+03	 6.935000000E+02
 3.082614396E+03	 6.945000000E+02
 3.083012450E+03	 6.865000000E+02
 3.083410463E+03	 6.860000000E+02
 3.083808434E+03	 6.905000000E+02
 3.084206364E+03	 6.815000000E+02
 3.084604252E+03	 6.880000000E+02
 3.085002098E+03	 6.895000000E+02
 3.085399903E+03	 6.875000000E+02
 3.085797667E+03	 6.935000000E+02
 3.086195389E+03	 6.930000000E+02
 3.086593069E+03	 6.840000000E+02
 3.086990708E+03	 6.860000000E+02
 3.087388305E+03	 6.870000000E+02
 3.087785861E+03	 6.855000000E+02
 3.088183375E+03	 6.880000000E+02
 3.088580848E+03	 6.885000000E+02
 3.088978279E+03	 6.890000000E+02
 3.089375669E+03	 6.895000000E+02
 3.089773017E+03	 6.885000000E+02
 3.090170324E+03	 6.900000000E+02
 3.090567589E+03	 6.875000000E+02
 3.090964812E+03	 6.920000000E+02
 3.091361995E+03	 6.905000000E+02
 3.091759135E+03	 6.835000000E+02
 3.092156234E+03	 6.880000000E+02
 3.092553292E+03	 6.860000000E+02
 3.092950308E+03	 6.885000000E+02
 3.093347283E+03	 6.880000000E+02
 3.093744216E+03	 6.895000000E+02
 3.094141107E+03	 6.870000000E+02
 3.094537957E+03	 6.870000000E+02
 3.094934766E+03	 6.925000000E+02
 3.095331533E+03	 6.870000000E+02
 3.095728259E+03	 6.870000000E+02
 3.096124943E+03	 6.880000000E+02
 3.096521586E+03	 6.930000000E+02
 3.096918187E+03	 6.870000000E+02
 3.097314747E+03	 6.870000000E+02
 3.097711265E+03	 6.920000000E+02
 3.098107742E+03	 6.900000000E+02
 3.098504177E+03	 6.905000000E+02
 3.098900571E+03	 6.905000000E+02
 3.099296923E+03	 6.880000000E+02
 3.099693234E+03	 6.815000000E+02
 3.100089504E+03	 6.865000000E+02
 3.100485732E+03	 6.820000000E+02
 3.100881919E+03	 6.885000000E+02
 3.101278064E+03	 6.935000000E+02
 3.101674167E+03	 6.940000000E+02
 3.102070230E+03	 6.895000000E+02
 3.102466251E+03	 6.850000000E+02
 3.102862230E+03	 6.845000000E+02
 3.103258168E+03	 6.840000000E+02
 3.103654065E+03	 6.875000000E+02
 3.104049920E+03	 6.845000000E+02
 3.104445733E+03	 6.835000000E+02
 3.104841506E+03	 6.875000000E+02
 3.105237236E+03	 6.870000000E+02
 3.105632926E+03	 6.910000000E+02
 3.106028574E+03	 6.880000000E+02
 3.106424180E+03	 6.895000000E+02
 3.106819746E+03	 6.860000000E+02
 3.107215269E+03	 6.860000000E+02
 3.107610752E+03	 6.875000000E+02
 3.108006193E+03	 6.825000000E+02
 3.108401592E+03	 6.905000000E+02
 3.108796951E+03	 6.850000000E+02
 3.109192267E+03	 6.860000000E+02
 3.109587543E+03	 6.900000000E+02
 3.109982777E+03	 6.920000000E+02
 3.110377969E+03	 6.890000000E+02
 3.110773121E+03	 6.890000000E+02
 3.111168230E+03	 6.820000000E+02
 3.111563299E+03	 6.890000000E+02
 3.111958326E+03	 6.875000000E+02
 3.112353312E+03	 6.840000000E+02
 3.112748256E+03	 6.890000000E+02
 3.113143159E+03	 6.875000000E+02
