1042.555005	734.25
1043.121438	728.0
1043.687813	723.0
1044.254131	725.25
1044.820391	722.0
1045.386593	717.0
1045.952737	717.75
1046.518824	716.25
1047.084853	708.75
1047.650824	717.5
1048.216738	711.0
1048.782593	710.75
1049.348392	711.0
1049.914132	708.5
1050.479815	706.75
1051.04544	705.5
1051.611007	707.75
1052.176517	706.0
1052.741968	703.25
1053.307363	703.25
1053.872699	702.75
1054.437978	705.5
1055.003199	703.75
1055.568363	694.5
1056.133469	700.75
1056.698517	699.75
1057.263508	695.5
1057.82844	698.5
1058.393316	696.75
1058.958133	696.0
1059.522893	695.75
1060.087596	694.5
1060.652241	691.5
1061.216828	695.5
1061.781357	696.25
1062.345829	697.5
1062.910243	699.0
1063.4746	695.5
1064.038899	694.0
1064.60314	693.75
1065.167324	694.0
1065.731451	694.75
1066.295519	690.75
1066.85953	692.5
1067.423484	694.5
1067.98738	690.0
1068.551218	690.5
1069.114999	690.0
1069.678722	691.5
1070.242388	698.5
1070.805996	693.25
1071.369546	690.5
1071.933039	687.75
1072.496475	688.75
1073.059853	688.5
1073.623173	690.0
1074.186436	689.75
1074.749641	687.0
1075.312789	692.5
1075.875879	688.0
1076.438912	687.75
1077.001887	684.5
1077.564805	688.0
1078.127665	685.75
1078.690468	687.5
1079.253213	685.75
1079.815901	688.25
1080.378531	687.0
1080.941104	686.5
1081.50362	686.5
1082.066077	688.25
1082.628478	690.0
1083.190821	683.25
1083.753106	685.5
1084.315334	685.5
1084.877505	685.25
1085.439618	683.25
1086.001673	689.5
1086.563671	684.25
1087.125612	684.75
1087.687495	684.75
1088.249321	684.75
1088.81109	684.75
1089.372801	686.25
1089.934454	682.0
1090.49605	684.25
1091.057589	687.25
1091.619071	682.5
1092.180495	682.75
1092.741861	687.0
1093.30317	686.75
1093.864422	685.75
1094.425616	682.25
1094.986753	685.0
1095.547833	685.75
1096.108855	684.25
1096.66982	685.25
1097.230728	690.75
1097.791578	683.5
1098.35237	684.75
1098.913106	687.5
1099.473784	683.75
1100.034405	688.25
1100.594968	685.0
1101.155474	679.75
1101.715923	684.5
1102.276314	682.75
1102.836648	683.75
1103.396925	684.0
1103.957144	685.25
1104.517306	685.0
1105.077411	680.75
1105.637459	679.75
1106.197449	680.5
1106.757382	682.5
1107.317257	686.5
1107.877075	679.25
1108.436836	686.25
1108.99654	682.75
1109.556187	681.0
1110.115776	685.0
1110.675308	680.25
1111.234782	680.75
1111.7942	681.75
1112.35356	684.75
1112.912862	680.0
1113.472108	680.5
1114.031296	683.75
1114.590427	680.75
1115.149501	678.75
1115.708518	681.75
1116.267477	681.5
1116.826379	680.5
1117.385224	687.25
1117.944012	684.5
1118.502743	683.0
1119.061416	680.25
1119.620032	680.0
1120.178591	686.5
1120.737092	679.5
1121.295537	684.5
1121.853924	683.5
1122.412254	675.25
1122.970527	679.25
1123.528743	683.0
1124.086901	680.5
1124.645003	681.0
1125.203047	678.75
1125.761034	682.75
1126.318964	680.25
1126.876836	683.5
1127.434652	682.25
1127.99241	680.0
1128.550112	681.25
1129.107756	679.25
1129.665343	677.5
1130.222873	683.5
1130.780345	679.25
1131.337761	676.0
1131.895119	678.25
1132.452421	680.0
1133.009665	681.0
1133.566852	683.0
1134.123982	677.25
1134.681055	677.0
1135.238071	682.75
1135.79503	678.25
1136.351931	677.75
1136.908776	681.25
1137.465563	677.75
1138.022294	675.25
1138.578967	677.25
1139.135583	680.25
1139.692142	677.25
1140.248645	682.25
1140.80509	677.75
1141.361478	678.75
1141.917809	678.0
1142.474083	677.0
1143.030299	677.5
1143.586459	675.5
1144.142562	675.5
1144.698608	676.75
1145.254596	679.0
1145.810528	675.25
1146.366403	673.25
1146.922221	675.5
1147.477981	679.25
1148.033685	677.5
1148.589332	676.0
1149.144921	677.5
1149.700454	677.0
1150.255929	677.5
1150.811348	678.0
1151.36671	679.25
1151.922014	678.5
1152.477262	677.5
1153.032453	674.5
1153.587587	678.5
1154.142664	676.5
1154.697683	675.75
1155.252646	672.25
1155.807552	677.5
1156.362401	676.0
1156.917193	675.75
1157.471928	677.0
1158.026607	678.5
1158.581228	671.0
1159.135792	672.25
1159.690299	677.5
1160.24475	677.75
1160.799143	676.0
1161.35348	677.0
1161.90776	673.0
1162.461983	675.5
1163.016149	676.75
1163.570258	674.75
1164.12431	677.25
1164.678305	679.0
1165.232243	675.75
1165.786125	675.75
1166.339949	674.0
1166.893717	675.5
1167.447428	678.5
1168.001082	673.0
1168.554679	676.75
1169.108219	674.5
1169.661702	674.5
1170.215129	674.5
1170.768498	674.25
1171.321811	675.0
1171.875067	676.5
1172.428266	677.75
1172.981409	674.75
1173.534494	673.25
1174.087523	675.5
1174.640495	676.25
1175.19341	677.75
1175.746268	671.75
1176.299069	676.75
1176.851814	671.75
1177.404501	676.0
1177.957132	678.0
1178.509707	674.25
1179.062224	676.25
1179.614685	674.5
1180.167088	674.75
1180.719435	675.25
1181.271726	677.5
1181.823959	677.75
1182.376136	678.75
1182.928256	674.25
1183.480319	675.0
1184.032325	675.75
1184.584275	679.5
1185.136168	675.5
1185.688004	678.5
1186.239784	671.0
1186.791506	674.0
1187.343172	680.25
1187.894781	678.5
1188.446334	673.5
1188.99783	675.75
1189.549269	675.75
1190.100651	675.75
1190.651977	674.5
1191.203246	675.25
1191.754458	671.5
1192.305613	679.25
1192.856712	676.75
1193.407754	697.25
1193.95874	675.0
1194.509669	674.75
1195.060541	678.0
1195.611356	676.5
1196.162115	676.0
1196.712817	672.25
1197.263462	675.5
1197.814051	674.5
1198.364583	674.5
1198.915058	677.75
1199.465477	673.75
1200.015839	672.25
1200.566145	676.75
1201.116394	677.25
1201.666586	675.5
1202.216721	676.25
1202.7668	671.25
1203.316823	676.0
1203.866788	672.75
1204.416697	677.0
1204.96655	675.5
1205.516346	675.25
1206.066085	678.75
1206.615768	674.25
1207.165394	676.5
1207.714963	675.25
1208.264476	672.75
1208.813932	675.0
1209.363332	676.25
1209.912675	675.75
1210.461962	676.5
1211.011192	675.75
1211.560365	675.25
1212.109482	674.0
1212.658542	673.75
1213.207546	676.0
1213.756493	678.75
1214.305384	677.75
1214.854218	678.5
1215.402995	677.25
1215.951716	673.5
1216.500381	677.25
1217.048989	675.25
1217.59754	675.5
1218.146035	677.75
1218.694473	674.5
1219.242855	677.75
1219.79118	674.0
1220.339449	673.0
1220.887662	673.5
1221.435817	674.0
1221.983917	676.0
1222.531959	674.25
1223.079946	676.5
1223.627876	673.75
1224.175749	677.25
1224.723566	678.0
1225.271326	678.0
1225.81903	678.25
1226.366678	676.0
1226.914269	675.0
1227.461803	676.75
1228.009281	675.5
1228.556703	678.25
1229.104068	678.5
1229.651377	677.75
1230.198629	673.0
1230.745825	676.0
1231.292965	676.5
1231.840048	684.0
1232.387074	674.5
1232.934044	674.75
1233.480958	678.0
1234.027815	676.75
1234.574616	673.25
1235.121361	676.5
1235.668049	678.75
1236.214681	675.75
1236.761256	676.25
1237.307775	674.5
1237.854237	676.25
1238.400643	673.5
1238.946993	674.25
1239.493287	673.25
1240.039524	673.5
1240.585704	676.0
1241.131828	678.0
1241.677896	676.75
1242.223908	678.25
1242.769863	674.25
1243.315762	678.75
1243.861604	675.75
1244.40739	678.25
1244.95312	679.25
1245.498794	674.5
1246.044411	675.0
1246.589972	675.75
1247.135476	675.5
1247.680924	676.0
1248.226316	676.0
1248.771652	677.75
1249.316931	676.5
1249.862154	673.75
1250.40732	677.0
1250.95243	680.25
1251.497484	677.75
1252.042482	679.5
1252.587423	674.75
1253.132309	675.75
1253.677137	680.0
1254.22191	675.5
1254.766626	678.25
1255.311286	679.75
1255.85589	681.75
1256.400437	684.0
1256.944929	684.5
1257.489363	685.0
1258.033742	682.5
1258.578065	683.0
1259.122331	680.0
1259.666541	685.0
1260.210694	703.0
1260.754792	687.5
1261.298833	688.25
1261.842818	686.75
1262.386747	688.5
1262.930619	683.25
1263.474436	682.75
1264.018196	683.25
1264.5619	679.25
1265.105548	680.75
1265.649139	683.0
1266.192674	680.5
1266.736154	678.75
1267.279576	678.0
1267.822943	680.0
1268.366254	680.5
1268.909508	683.0
1269.452706	678.0
1269.995848	681.75
1270.538934	682.25
1271.081964	679.25
1271.624937	681.0
1272.167855	680.25
1272.710716	682.0
1273.253521	679.0
1273.79627	677.5
1274.338962	680.25
1274.881599	684.0
1275.42418	686.0
1275.966704	687.5
1276.509172	687.5
1277.051584	683.25
1277.59394	688.25
1278.13624	694.5
1278.678484	697.75
1279.220671	706.0
1279.762803	723.75
1280.304878	761.75
1280.846897	844.75
1281.388861	894.75
1281.930768	854.5
1282.472619	778.5
1283.014414	725.0
1283.556152	712.25
1284.097835	700.0
1284.639462	692.0
1285.181032	690.75
1285.722547	685.25
1286.264005	684.0
1286.805408	683.5
1287.346754	679.75
1287.888044	685.0
1288.429278	684.75
1288.970457	683.0
1289.511579	682.0
1290.052645	684.25
1290.593655	680.0
1291.134609	678.0
1291.675507	679.25
1292.216349	678.75
1292.757135	680.5
1293.297865	683.25
1293.838539	677.5
1294.379156	677.5
1294.919718	676.75
1295.460224	679.75
1296.000674	676.25
1296.541068	677.25
1297.081406	676.5
1297.621688	677.0
1298.161913	677.75
1298.702083	680.5
1299.242197	678.25
1299.782255	677.5
1300.322257	677.0
1300.862203	679.5
1301.402093	680.5
1301.941927	677.5
1302.481705	679.75
1303.021427	680.0
1303.561094	680.25
1304.100704	678.5
1304.640258	680.5
1305.179756	677.75
1305.719199	681.75
1306.258585	677.25
1306.797916	680.0
1307.33719	676.5
1307.876409	679.75
1308.415572	677.25
1308.954679	679.5
1309.49373	678.0
1310.032725	677.0
1310.571664	675.0
1311.110547	674.75
1311.649374	678.0
1312.188146	678.0
1312.726861	678.5
1313.265521	677.5
1313.804125	678.0
1314.342672	678.25
1314.881164	679.5
1315.419601	678.5
1315.957981	677.75
1316.496305	675.25
1317.034574	674.25
1317.572786	678.0
1318.110943	678.75
1318.649044	674.75
1319.187089	679.5
1319.725078	680.0
1320.263012	679.0
1320.800889	676.25
1321.338711	677.75
1321.876477	677.75
1322.414187	677.5
1322.951841	674.25
1323.489439	675.75
1324.026982	679.75
1324.564469	675.5
1325.101899	677.75
1325.639275	682.0
1326.176594	678.5
1326.713857	678.0
1327.251065	681.5
1327.788217	675.75
1328.325313	678.25
1328.862353	679.25
1329.399338	678.25
1329.936267	678.75
1330.47314	679.0
1331.009957	679.5
1331.546718	675.75
1332.083424	675.75
1332.620074	676.5
1333.156668	678.25
1333.693207	684.0
1334.229689	678.75
1334.766116	681.0
1335.302487	676.0
1335.838803	679.25
1336.375062	679.25
1336.911266	675.75
1337.447414	679.25
1337.983507	676.5
1338.519543	677.75
1339.055524	675.5
1339.59145	674.25
1340.127319	676.0
1340.663133	678.0
1341.198891	676.25
1341.734594	679.0
1342.27024	676.25
1342.805831	675.5
1343.341367	675.75
1343.876846	678.0
1344.41227	679.5
1344.947639	677.0
1345.482951	682.75
1346.018208	677.0
1346.553409	676.0
1347.088555	676.5
1347.623645	675.75
1348.158679	674.75
1348.693658	677.25
1349.22858	681.5
1349.763448	677.5
1350.298259	676.0
1350.833015	680.0
1351.367716	677.75
1351.90236	675.0
1352.436949	677.75
1352.971483	679.25
1353.50596	676.5
1354.040383	676.5
1354.574749	678.25
1355.10906	676.25
1355.643315	677.5
1356.177515	679.0
1356.711659	675.5
1357.245747	679.0
1357.77978	679.25
1358.313757	679.0
1358.847679	678.0
1359.381545	677.25
1359.915356	681.5
1360.44911	675.75
1360.98281	675.5
1361.516453	675.25
1362.050042	677.5
1362.583574	681.0
1363.117051	678.25
1363.650473	682.5
1364.183838	678.0
1364.717149	678.25
1365.250404	679.0
1365.783603	677.0
1366.316746	681.0
1366.849834	676.0
1367.382867	678.0
1367.915844	681.0
1368.448766	682.75
1368.981631	687.75
1369.514442	692.0
1370.047197	682.75
1370.579896	679.5
1371.11254	677.75
1371.645128	680.5
1372.177661	678.0
1372.710139	682.25
1373.24256	678.0
1373.774927	680.0
1374.307238	680.25
1374.839493	681.25
1375.371693	683.0
1375.903837	679.75
1376.435926	679.75
1376.967959	681.25
1377.499937	685.25
1378.03186	683.5
1378.563727	684.75
1379.095538	685.0
1379.627294	686.75
1380.158995	683.75
1380.69064	685.25
1381.222229	688.75
1381.753764	692.25
1382.285242	695.5
1382.816666	698.75
1383.348033	701.0
1383.879346	708.25
1384.410603	730.75
1384.941804	755.0
1385.472951	809.75
1386.004041	923.5
1386.535077	1082.75
1387.066056	1080.0
1387.596981	914.5
1388.12785	797.75
1388.658664	752.75
1389.189422	721.75
1389.720125	710.5
1390.250772	701.75
1390.781364	696.75
1391.311901	695.25
1391.842382	689.5
1392.372808	688.0
1392.903178	688.0
1393.433494	689.75
1393.963753	690.75
1394.493958	688.25
1395.024107	686.25
1395.5542	684.5
1396.084239	687.5
1396.614222	679.75
1397.144149	681.5
1397.674021	680.25
1398.203838	678.5
1398.7336	685.5
1399.263306	685.25
1399.792957	684.5
1400.322552	685.75
1400.852093	683.75
1401.381577	681.75
1401.911007	676.25
1402.440381	682.0
1402.9697	683.75
1403.498964	685.5
1404.028172	686.0
1404.557325	684.5
1405.086423	686.25
1405.615465	689.75
1406.144452	687.5
1406.673384	689.5
1407.20226	693.0
1407.731082	693.25
1408.259847	691.5
1408.788558	692.0
1409.317213	694.25
1409.845814	686.5
1410.374358	687.5
1410.902848	687.75
1411.431282	682.75
1411.959661	684.0
1412.487985	683.25
1413.016253	679.0
1413.544467	679.0
1414.072625	678.5
1414.600727	678.75
1415.128775	678.75
1415.656767	694.0
1416.184704	677.0
1416.712586	681.25
1417.240413	679.75
1417.768184	681.25
1418.2959	677.25
1418.823561	676.0
1419.351167	680.0
1419.878717	677.0
1420.406213	676.0
1420.933653	678.25
1421.461038	676.25
1421.988367	679.5
1422.515642	676.5
1423.042861	675.0
1423.570025	676.75
1424.097134	679.25
1424.624188	678.25
1425.151187	677.0
1425.67813	677.0
1426.205018	677.5
1426.731851	676.75
1427.258629	677.25
1427.785352	675.5
1428.31202	676.75
1428.838632	675.5
1429.365189	676.75
1429.891692	674.25
1430.418139	675.5
1430.94453	676.75
1431.470867	679.0
1431.997149	678.75
1432.523375	675.5
1433.049546	676.0
1433.575663	678.0
1434.101724	673.0
1434.62773	675.75
1435.15368	677.5
1435.679576	676.5
1436.205417	680.25
1436.731202	673.75
1437.256933	674.5
1437.782608	677.5
1438.308228	678.0
1438.833793	675.25
1439.359303	672.5
1439.884758	676.0
1440.410158	676.0
1440.935503	674.5
1441.460793	675.0
1441.986027	679.25
1442.511207	673.5
1443.036331	679.75
1443.561401	673.75
1444.086415	674.25
1444.611374	676.25
1445.136279	678.25
1445.661128	675.75
1446.185922	674.75
1446.710661	673.75
1447.235345	676.0
1447.759974	678.0
1448.284548	675.0
1448.809067	673.5
1449.333531	674.25
1449.85794	675.75
1450.382294	676.75
1450.906593	676.25
1451.430837	673.25
1451.955026	674.5
1452.47916	675.0
1453.003239	674.0
1453.527263	677.75
1454.051231	676.5
1454.575145	675.5
1455.099004	676.75
1455.622808	675.75
1456.146557	675.0
1456.670251	677.5
1457.19389	677.0
1457.717474	676.0
1458.241003	674.25
1458.764477	677.25
1459.287896	674.75
1459.81126	679.0
1460.334569	675.75
1460.857824	676.5
1461.381023	676.0
1461.904167	676.5
1462.427257	675.75
1462.950291	672.75
1463.473271	676.25
1463.996195	678.0
1464.519065	678.5
1465.041879	674.25
1465.564639	676.5
1466.087344	675.0
1466.609994	675.0
1467.132589	675.0
1467.655129	672.75
1468.177614	671.75
1468.700045	675.75
1469.22242	678.25
1469.744741	680.25
1470.267006	678.25
1470.789217	676.5
1471.311373	675.75
1471.833474	680.25
1472.35552	674.25
1472.877511	674.5
1473.399447	674.0
1473.921329	673.5
1474.443155	676.75
1474.964927	677.0
1475.486644	672.25
1476.008306	675.0
1476.529913	675.25
1477.051465	675.5
1477.572962	674.5
1478.094405	672.75
1478.615793	672.25
1479.137126	675.75
1479.658404	674.0
1480.179627	674.0
1480.700795	674.75
1481.221909	676.5
1481.742967	669.5
1482.263971	675.0
1482.78492	677.5
1483.305815	672.5
1483.826654	674.25
1484.347439	675.5
1484.868169	672.5
1485.388844	673.0
1485.909464	679.0
1487.470996	673.25
1487.991397	675.5
1488.511744	671.25
1489.032035	677.25
1489.552272	674.25
1490.072454	671.5
1490.592581	677.0
1491.112654	673.25
1491.632671	672.5
1492.152634	672.0
1492.672542	671.0
1493.192396	675.25
1493.712195	674.75
1494.231939	676.0
1494.751628	671.75
1495.271262	671.25
1495.790842	673.0
1496.310367	676.25
1496.829837	674.25
1497.349253	677.25
1497.868614	675.5
1498.38792	675.0
1498.907171	677.75
1499.426368	674.0
1499.94551	682.0
1500.464597	675.5
1500.98363	676.5
1501.502607	672.0
1502.021531	674.5
1502.540399	675.25
1503.059213	677.5
1503.577972	676.5
1504.096676	675.5
1504.615326	671.75
1505.133921	674.75
1505.652462	675.0
1506.170947	675.5
1506.689378	670.75
1507.207755	673.25
1507.726077	671.0
1508.244344	674.5
1508.762556	675.0
1509.280714	673.75
1509.798817	675.0
1510.316865	674.0
1510.834859	681.0
1511.352799	674.0
1511.870683	673.25
1512.388513	672.5
1512.906288	675.25
1513.424009	676.0
1513.941675	674.5
1514.459287	675.5
1514.976843	677.5
1515.494346	674.25
1516.011793	676.0
1516.529186	676.25
1517.046525	673.75
1517.563809	673.5
1518.081038	674.25
1518.598212	677.5
1519.115332	675.75
1519.632398	671.0
1520.149409	672.0
1520.666365	674.5
1521.183267	675.75
1521.700114	676.0
1522.216907	675.25
1522.733645	676.0
1523.250328	674.5
1523.766957	674.25
1524.283531	671.75
1524.800051	675.0
1525.316516	675.0
1525.832927	673.5
1526.349283	675.75
1526.865585	677.75
1527.381832	673.5
1527.898025	675.25
1528.414163	672.25
1528.930246	673.25
1529.446275	675.75
1529.96225	677.5
1530.47817	676.0
1530.994035	673.75
1531.509846	676.25
1532.025602	674.25
1532.541304	678.5
1533.056952	672.75
1533.572545	673.75
1534.088083	678.25
1534.603567	673.25
1535.118997	673.25
1535.634372	674.75
1536.149692	674.75
1536.664958	676.5
1537.18017	674.75
1537.695327	672.75
1538.210429	672.75
1538.725477	674.75
1539.240471	672.5
1539.75541	674.25
1540.270295	677.0
1540.785126	678.25
1541.299901	673.75
1541.814623	675.0
1542.32929	675.5
1542.843903	674.25
1543.358461	674.75
1543.872964	671.5
1544.387414	678.5
1544.901809	672.75
1545.416149	673.25
1545.930435	674.5
1546.444667	673.25
1546.958844	677.0
1547.472967	676.5
1547.987035	674.5
1548.501049	673.5
1549.015009	674.75
1549.528914	677.25
1550.042765	674.0
1550.556561	675.5
1551.070303	676.75
1551.583991	675.25
1552.097624	674.5
1552.611203	675.75
1553.124728	670.5
1553.638198	675.0
1554.151614	679.5
1554.664975	675.25
1555.178282	672.75
1555.691535	673.75
1556.204733	674.5
1556.717877	676.5
1557.230967	676.5
1557.744003	673.25
1558.256984	674.5
1558.76991	672.0
1559.282783	678.75
1559.795601	673.5
1560.308364	675.0
1560.821074	678.5
1561.333729	673.25
1561.84633	673.25
1562.358876	676.5
1562.871368	673.75
1563.383806	674.5
1563.89619	676.0
1564.408519	674.5
1564.920794	676.5
1565.433015	674.75
1565.945181	675.75
1566.457293	676.75
1566.969351	673.25
1567.481355	673.75
1567.993304	680.25
1568.505199	677.25
1569.01704	678.5
1569.528826	675.75
1570.040558	678.25
1570.552236	675.75
1571.06386	674.25
1571.575429	673.0
1572.086945	677.0
1572.598406	676.0
1573.109812	673.5
1573.621165	673.0
1574.132463	672.25
1574.643707	677.75
1575.154897	674.75
1575.666033	675.75
1576.177114	677.0
1576.688141	675.0
1577.199114	674.5
1577.710033	672.25
1578.220897	674.25
1578.731708	675.0
1579.242464	674.5
1579.753166	676.5
1580.263813	673.0
1580.774407	673.5
1581.284946	671.5
1581.795432	674.25
1582.305863	672.0
1582.816239	672.0
1583.326562	675.5
1583.836831	675.75
1584.347045	675.25
1584.857205	672.5
1585.367311	675.5
1585.877363	674.0
1586.387361	672.25
1586.897304	675.0
1587.407194	676.5
1587.917029	675.25
1588.42681	677.25
1588.936537	674.25
1589.44621	673.0
1589.955829	675.0
1590.465393	672.0
1590.974904	674.5
1591.48436	676.0
1591.993762	677.5
1592.50311	675.0
