 8.415888076E+02	 9.790000000E+02
 8.461485045E+02	 9.760000000E+02
 8.507057971E+02	 1.007000000E+03
 8.552606870E+02	 1.028000000E+03
 8.598131762E+02	 1.025000000E+03
 8.643632664E+02	 1.054000000E+03
 8.689109593E+02	 1.059000000E+03
 8.734562569E+02	 1.017000000E+03
 8.779991609E+02	 1.031000000E+03
 8.825396731E+02	 1.033000000E+03
 8.870777953E+02	 9.960000000E+02
 8.916135293E+02	 1.013000000E+03
 8.961468769E+02	 1.018000000E+03
 9.006778400E+02	 1.017000000E+03
 9.052064203E+02	 1.008000000E+03
 9.097326196E+02	 9.900000000E+02
 9.142564398E+02	 9.880000000E+02
 9.187778826E+02	 1.019000000E+03
 9.232969499E+02	 1.015000000E+03
 9.278136434E+02	 1.009000000E+03
 9.323279650E+02	 1.002000000E+03
 9.368399165E+02	 1.031000000E+03
 9.413494997E+02	 1.035000000E+03
 9.458567163E+02	 1.029000000E+03
 9.503615683E+02	 1.066000000E+03
 9.548640574E+02	 1.080000000E+03
 9.593641854E+02	 1.087000000E+03
 9.638619542E+02	 1.117000000E+03
 9.683573655E+02	 1.146000000E+03
 9.728504211E+02	 1.196000000E+03
 9.773411230E+02	 1.269000000E+03
 9.818294728E+02	 1.342000000E+03
 9.863154724E+02	 1.475000000E+03
 9.907991236E+02	 1.602000000E+03
 9.952804282E+02	 1.831000000E+03
 9.997593880E+02	 1.983000000E+03
 1.004236005E+03	 2.018000000E+03
 1.008710281E+03	 1.853000000E+03
 1.013182217E+03	 1.564000000E+03
 1.017651816E+03	 1.350000000E+03
 1.022119079E+03	 1.250000000E+03
 1.026584008E+03	 1.178000000E+03
 1.031046605E+03	 1.155000000E+03
 1.035506872E+03	 1.100000000E+03
 1.039964811E+03	 1.071000000E+03
 1.044420422E+03	 1.055000000E+03
 1.048873709E+03	 1.036000000E+03
 1.053324673E+03	 9.890000000E+02
 1.057773316E+03	 9.640000000E+02
 1.062219639E+03	 9.780000000E+02
 1.066663645E+03	 9.470000000E+02
 1.071105335E+03	 9.380000000E+02
 1.075544711E+03	 9.440000000E+02
 1.079981775E+03	 9.330000000E+02
 1.084416528E+03	 9.120000000E+02
 1.088848973E+03	 9.120000000E+02
 1.093279111E+03	 8.900000000E+02
 1.097706945E+03	 8.940000000E+02
 1.102132475E+03	 8.930000000E+02
 1.106555704E+03	 8.890000000E+02
 1.110976634E+03	 9.060000000E+02
 1.115395266E+03	 8.700000000E+02
 1.119811602E+03	 8.850000000E+02
 1.124225644E+03	 8.710000000E+02
 1.128637393E+03	 8.490000000E+02
 1.133046853E+03	 8.320000000E+02
 1.137454024E+03	 8.430000000E+02
 1.141858908E+03	 8.540000000E+02
 1.146261507E+03	 8.410000000E+02
 1.150661823E+03	 8.470000000E+02
 1.155059857E+03	 8.360000000E+02
 1.159455612E+03	 8.430000000E+02
 1.163849089E+03	 8.300000000E+02
 1.168240291E+03	 8.220000000E+02
 1.172629218E+03	 8.410000000E+02
 1.177015873E+03	 8.420000000E+02
 1.181400257E+03	 8.390000000E+02
 1.185782373E+03	 8.070000000E+02
 1.190162222E+03	 8.200000000E+02
 1.194539805E+03	 8.350000000E+02
 1.198915126E+03	 8.210000000E+02
 1.203288185E+03	 8.380000000E+02
 1.207658984E+03	 8.280000000E+02
 1.212027525E+03	 8.160000000E+02
 1.216393811E+03	 8.280000000E+02
 1.220757842E+03	 8.160000000E+02
 1.225119621E+03	 8.280000000E+02
 1.229479149E+03	 8.280000000E+02
 1.233836428E+03	 8.660000000E+02
 1.238191460E+03	 8.580000000E+02
 1.242544247E+03	 8.470000000E+02
 1.246894790E+03	 8.560000000E+02
 1.251243092E+03	 8.720000000E+02
 1.255589154E+03	 8.870000000E+02
 1.259932978E+03	 8.910000000E+02
 1.264274565E+03	 8.810000000E+02
 1.268613919E+03	 9.650000000E+02
 1.272951039E+03	 1.488000000E+03
 1.277285929E+03	 1.206000000E+03
 1.281618590E+03	 9.090000000E+02
 1.285949023E+03	 8.560000000E+02
 1.290277231E+03	 8.680000000E+02
 1.294603215E+03	 8.670000000E+02
 1.298926978E+03	 8.390000000E+02
 1.303248520E+03	 8.460000000E+02
 1.307567844E+03	 8.610000000E+02
 1.311884952E+03	 8.590000000E+02
 1.316199844E+03	 8.440000000E+02
 1.320512524E+03	 8.440000000E+02
 1.324822993E+03	 8.540000000E+02
 1.329131253E+03	 8.410000000E+02
 1.333437305E+03	 8.760000000E+02
 1.337741151E+03	 8.470000000E+02
 1.342042793E+03	 8.400000000E+02
 1.346342233E+03	 8.550000000E+02
 1.350639472E+03	 8.790000000E+02
 1.354934513E+03	 8.580000000E+02
 1.359227358E+03	 8.740000000E+02
 1.363518007E+03	 8.890000000E+02
 1.367806462E+03	 8.710000000E+02
 1.372092727E+03	 9.680000000E+02
 1.376376801E+03	 1.619000000E+03
 1.380658688E+03	 1.978000000E+03
 1.384938389E+03	 1.030000000E+03
 1.389215905E+03	 9.080000000E+02
 1.393491238E+03	 9.080000000E+02
 1.397764391E+03	 9.230000000E+02
 1.402035365E+03	 9.250000000E+02
 1.406304161E+03	 8.840000000E+02
 1.410570782E+03	 8.520000000E+02
 1.414835230E+03	 8.610000000E+02
 1.419097505E+03	 8.540000000E+02
 1.423357610E+03	 8.410000000E+02
 1.427615547E+03	 8.300000000E+02
 1.431871317E+03	 8.340000000E+02
 1.436124922E+03	 8.470000000E+02
 1.440376364E+03	 8.350000000E+02
 1.444625645E+03	 8.270000000E+02
 1.448872766E+03	 8.300000000E+02
 1.453117730E+03	 8.210000000E+02
 1.457360537E+03	 8.400000000E+02
 1.461601190E+03	 8.270000000E+02
 1.465839691E+03	 8.260000000E+02
 1.470076041E+03	 8.240000000E+02
 1.474310242E+03	 8.300000000E+02
 1.478542295E+03	 8.290000000E+02
 1.482772203E+03	 8.260000000E+02
 1.486999968E+03	 8.160000000E+02
 1.491225590E+03	 8.270000000E+02
 1.495449072E+03	 8.170000000E+02
 1.499670416E+03	 8.370000000E+02
 1.503889623E+03	 8.220000000E+02
 1.508106695E+03	 8.150000000E+02
 1.512321634E+03	 8.310000000E+02
 1.516534442E+03	 8.310000000E+02
 1.520745119E+03	 8.240000000E+02
 1.524953669E+03	 8.350000000E+02
 1.529160093E+03	 8.260000000E+02
 1.533364392E+03	 8.290000000E+02
 1.537566568E+03	 8.330000000E+02
 1.541766623E+03	 8.310000000E+02
 1.545964559E+03	 8.450000000E+02
 1.550160378E+03	 8.130000000E+02
 1.554354081E+03	 8.070000000E+02
 1.558545669E+03	 8.360000000E+02
 1.562735146E+03	 8.130000000E+02
 1.566922512E+03	 8.220000000E+02
 1.571107769E+03	 8.380000000E+02
 1.575290919E+03	 8.320000000E+02
 1.579471963E+03	 8.190000000E+02
 1.583650904E+03	 8.210000000E+02
 1.587827743E+03	 8.340000000E+02
 1.592002482E+03	 8.350000000E+02
 1.596175123E+03	 8.230000000E+02
 1.600345666E+03	 8.370000000E+02
 1.604514115E+03	 8.400000000E+02
 1.608680470E+03	 8.360000000E+02
 1.612844734E+03	 8.330000000E+02
 1.617006908E+03	 8.300000000E+02
 1.621166994E+03	 8.390000000E+02
 1.625324994E+03	 8.320000000E+02
 1.629480909E+03	 8.330000000E+02
 1.633634741E+03	 8.320000000E+02
 1.637786491E+03	 8.260000000E+02
 1.641936162E+03	 8.380000000E+02
 1.646083755E+03	 8.330000000E+02
 1.650229273E+03	 8.400000000E+02
 1.654372715E+03	 8.460000000E+02
 1.658514085E+03	 8.560000000E+02
 1.662653384E+03	 8.360000000E+02
 1.666790614E+03	 8.320000000E+02
 1.670925776E+03	 8.330000000E+02
 1.675058872E+03	 8.300000000E+02
 1.679189905E+03	 8.360000000E+02
 1.683318874E+03	 8.150000000E+02
 1.687445783E+03	 8.360000000E+02
 1.691570633E+03	 8.330000000E+02
 1.695693425E+03	 8.200000000E+02
 1.699814161E+03	 8.310000000E+02
 1.703932844E+03	 8.270000000E+02
 1.708049474E+03	 8.140000000E+02
 1.712164054E+03	 8.280000000E+02
 1.716276585E+03	 8.070000000E+02
 1.720387068E+03	 8.130000000E+02
 1.724495506E+03	 8.250000000E+02
 1.728601900E+03	 8.300000000E+02
 1.732706252E+03	 8.330000000E+02
 1.736808563E+03	 8.290000000E+02
 1.740908835E+03	 8.290000000E+02
 1.745007071E+03	 8.250000000E+02
 1.749103270E+03	 8.090000000E+02
 1.753197436E+03	 8.320000000E+02
 1.757289570E+03	 8.250000000E+02
 1.761379673E+03	 8.440000000E+02
 1.765467748E+03	 8.260000000E+02
 1.769553795E+03	 8.230000000E+02
 1.773637817E+03	 8.370000000E+02
 1.777719815E+03	 8.260000000E+02
 1.781799791E+03	 8.220000000E+02
 1.785877747E+03	 8.400000000E+02
 1.789953684E+03	 8.270000000E+02
 1.794027603E+03	 8.200000000E+02
 1.798099507E+03	 8.160000000E+02
 1.802169398E+03	 8.370000000E+02
 1.806237276E+03	 8.390000000E+02
 1.810303143E+03	 8.130000000E+02
 1.814367002E+03	 8.240000000E+02
 1.818428853E+03	 8.270000000E+02
 1.822488699E+03	 8.180000000E+02
 1.826546541E+03	 8.060000000E+02
 1.830602381E+03	 8.120000000E+02
 1.834656220E+03	 8.260000000E+02
 1.838708060E+03	 8.250000000E+02
 1.842757903E+03	 8.340000000E+02
 1.846805750E+03	 8.330000000E+02
 1.850851603E+03	 8.180000000E+02
 1.854895464E+03	 8.270000000E+02
 1.858937334E+03	 8.230000000E+02
 1.862977214E+03	 8.320000000E+02
 1.867015108E+03	 8.360000000E+02
 1.871051015E+03	 8.280000000E+02
 1.875084938E+03	 8.180000000E+02
 1.879116878E+03	 8.420000000E+02
 1.883146837E+03	 8.400000000E+02
 1.887174817E+03	 8.320000000E+02
 1.891200820E+03	 8.360000000E+02
 1.895224846E+03	 8.240000000E+02
 1.899246897E+03	 8.260000000E+02
 1.903266976E+03	 8.280000000E+02
 1.907285083E+03	 8.300000000E+02
 1.911301221E+03	 8.390000000E+02
 1.915315390E+03	 8.180000000E+02
 1.919327593E+03	 8.130000000E+02
 1.923337832E+03	 8.230000000E+02
 1.927346107E+03	 8.360000000E+02
 1.931352420E+03	 8.240000000E+02
 1.935356773E+03	 8.270000000E+02
 1.939359168E+03	 8.430000000E+02
 1.943359607E+03	 8.190000000E+02
 1.947358090E+03	 8.220000000E+02
 1.951354619E+03	 8.230000000E+02
 1.955349196E+03	 8.210000000E+02
 1.959341823E+03	 8.080000000E+02
 1.963332501E+03	 8.240000000E+02
 1.967321232E+03	 8.250000000E+02
 1.971308017E+03	 8.340000000E+02
 1.975292858E+03	 8.180000000E+02
 1.979275756E+03	 8.150000000E+02
 1.983256714E+03	 8.220000000E+02
 1.987235732E+03	 8.230000000E+02
 1.991212813E+03	 8.390000000E+02
 1.995187957E+03	 8.280000000E+02
 1.999161167E+03	 8.130000000E+02
 2.003132444E+03	 8.350000000E+02
 2.007101789E+03	 8.190000000E+02
 2.011069205E+03	 8.200000000E+02
 2.015034692E+03	 8.350000000E+02
 2.018998252E+03	 8.280000000E+02
 2.022959888E+03	 8.270000000E+02
 2.026919599E+03	 8.310000000E+02
 2.030877389E+03	 8.310000000E+02
 2.034833258E+03	 8.190000000E+02
 2.038787209E+03	 8.220000000E+02
 2.042739242E+03	 8.160000000E+02
 2.046689359E+03	 8.330000000E+02
 2.050637562E+03	 8.410000000E+02
 2.054583852E+03	 8.280000000E+02
 2.058528231E+03	 8.070000000E+02
 2.062470701E+03	 8.070000000E+02
 2.066411262E+03	 8.350000000E+02
 2.070349917E+03	 8.190000000E+02
 2.074286667E+03	 8.250000000E+02
 2.078221514E+03	 8.190000000E+02
 2.082154459E+03	 8.270000000E+02
 2.086085503E+03	 8.240000000E+02
 2.090014649E+03	 8.250000000E+02
 2.093941897E+03	 8.240000000E+02
 2.097867250E+03	 8.190000000E+02
 2.101790709E+03	 8.150000000E+02
 2.105712275E+03	 8.200000000E+02
 2.109631949E+03	 8.160000000E+02
 2.113549734E+03	 8.350000000E+02
 2.117465632E+03	 8.270000000E+02
 2.121379642E+03	 8.210000000E+02
 2.125291767E+03	 8.170000000E+02
 2.129202009E+03	 8.270000000E+02
 2.133110369E+03	 8.390000000E+02
 2.137016849E+03	 8.310000000E+02
 2.140921449E+03	 8.180000000E+02
 2.144824172E+03	 8.170000000E+02
 2.148725019E+03	 8.180000000E+02
 2.152623992E+03	 8.070000000E+02
 2.156521092E+03	 8.240000000E+02
 2.160416320E+03	 8.190000000E+02
 2.164309678E+03	 8.150000000E+02
 2.168201168E+03	 8.150000000E+02
 2.172090791E+03	 8.000000000E+02
 2.175978549E+03	 8.160000000E+02
 2.179864442E+03	 8.230000000E+02
 2.183748473E+03	 8.140000000E+02
 2.187630643E+03	 8.140000000E+02
 2.191510954E+03	 8.140000000E+02
 2.195389407E+03	 8.120000000E+02
 2.199266003E+03	 8.080000000E+02
 2.203140744E+03	 8.070000000E+02
 2.207013632E+03	 7.960000000E+02
 2.210884668E+03	 8.160000000E+02
 2.214753853E+03	 7.960000000E+02
 2.218621189E+03	 8.100000000E+02
 2.222486677E+03	 8.140000000E+02
 2.226350319E+03	 8.160000000E+02
 2.230212117E+03	 8.310000000E+02
 2.234072071E+03	 8.150000000E+02
 2.237930184E+03	 8.100000000E+02
 2.241786456E+03	 8.170000000E+02
 2.245640890E+03	 7.990000000E+02
 2.249493486E+03	 8.160000000E+02
 2.253344246E+03	 8.160000000E+02
 2.257193172E+03	 8.040000000E+02
 2.261040265E+03	 8.060000000E+02
 2.264885526E+03	 8.100000000E+02
 2.268728958E+03	 8.130000000E+02
 2.272570560E+03	 8.100000000E+02
 2.276410336E+03	 8.200000000E+02
 2.280248286E+03	 8.070000000E+02
 2.284084411E+03	 7.940000000E+02
 2.287918714E+03	 8.050000000E+02
 2.291751195E+03	 8.120000000E+02
 2.295581857E+03	 8.110000000E+02
 2.299410699E+03	 8.200000000E+02
 2.303237725E+03	 7.950000000E+02
 2.307062935E+03	 8.130000000E+02
 2.310886331E+03	 8.090000000E+02
 2.314707914E+03	 8.190000000E+02
 2.318527686E+03	 8.090000000E+02
 2.322345648E+03	 8.200000000E+02
 2.326161801E+03	 8.200000000E+02
 2.329976147E+03	 8.100000000E+02
 2.333788688E+03	 8.190000000E+02
 2.337599424E+03	 8.220000000E+02
 2.341408358E+03	 8.090000000E+02
 2.345215490E+03	 8.190000000E+02
 2.349020822E+03	 7.900000000E+02
 2.352824355E+03	 8.030000000E+02
 2.356626092E+03	 8.100000000E+02
 2.360426032E+03	 8.150000000E+02
 2.364224178E+03	 8.190000000E+02
 2.368020531E+03	 8.070000000E+02
 2.371815093E+03	 7.940000000E+02
 2.375607864E+03	 8.030000000E+02
 2.379398847E+03	 8.000000000E+02
 2.383188042E+03	 8.180000000E+02
 2.386975452E+03	 7.930000000E+02
 2.390761076E+03	 8.270000000E+02
 2.394544918E+03	 8.040000000E+02
 2.398326978E+03	 8.230000000E+02
 2.402107257E+03	 8.250000000E+02
 2.405885757E+03	 8.180000000E+02
 2.409662480E+03	 8.330000000E+02
 2.413437426E+03	 8.230000000E+02
 2.417210597E+03	 8.320000000E+02
 2.420981995E+03	 8.320000000E+02
 2.424751621E+03	 8.400000000E+02
 2.428519476E+03	 8.390000000E+02
 2.432285561E+03	 8.560000000E+02
 2.436049879E+03	 8.400000000E+02
 2.439812429E+03	 8.470000000E+02
 2.443573215E+03	 8.430000000E+02
 2.447332236E+03	 8.240000000E+02
 2.451089495E+03	 8.240000000E+02
 2.454844993E+03	 8.240000000E+02
 2.458598731E+03	 8.310000000E+02
 2.462350710E+03	 8.300000000E+02
 2.466100932E+03	 8.270000000E+02
 2.469849399E+03	 8.110000000E+02
 2.473596111E+03	 8.220000000E+02
 2.477341069E+03	 8.140000000E+02
 2.481084276E+03	 8.110000000E+02
 2.484825733E+03	 8.280000000E+02
 2.488565440E+03	 8.170000000E+02
 2.492303400E+03	 8.080000000E+02
 2.496039614E+03	 8.080000000E+02
 2.499774082E+03	 8.230000000E+02
 2.503506806E+03	 8.020000000E+02
 2.507237789E+03	 8.110000000E+02
 2.510967030E+03	 8.050000000E+02
 2.514694531E+03	 8.230000000E+02
 2.518420294E+03	 8.180000000E+02
 2.522144320E+03	 8.060000000E+02
 2.525866610E+03	 8.010000000E+02
 2.529587166E+03	 8.240000000E+02
 2.533305988E+03	 7.930000000E+02
 2.537023079E+03	 8.030000000E+02
 2.540738439E+03	 8.020000000E+02
 2.544452070E+03	 8.070000000E+02
 2.548163973E+03	 8.060000000E+02
 2.551874150E+03	 8.040000000E+02
 2.555582601E+03	 7.950000000E+02
 2.559289329E+03	 7.900000000E+02
 2.562994333E+03	 7.980000000E+02
 2.566697617E+03	 7.950000000E+02
 2.570399180E+03	 8.170000000E+02
 2.574099025E+03	 7.900000000E+02
 2.577797152E+03	 8.030000000E+02
 2.581493563E+03	 7.900000000E+02
 2.585188259E+03	 7.880000000E+02
 2.588881242E+03	 7.930000000E+02
 2.592572512E+03	 7.960000000E+02
 2.596262071E+03	 7.970000000E+02
 2.599949921E+03	 8.140000000E+02
 2.603636062E+03	 8.030000000E+02
 2.607320496E+03	 7.990000000E+02
 2.611003224E+03	 7.970000000E+02
 2.614684248E+03	 7.980000000E+02
 2.618363568E+03	 8.010000000E+02
 2.622041186E+03	 7.810000000E+02
 2.625717103E+03	 7.950000000E+02
 2.629391321E+03	 7.890000000E+02
 2.633063841E+03	 7.910000000E+02
 2.636734664E+03	 8.010000000E+02
 2.640403791E+03	 7.890000000E+02
 2.644071223E+03	 7.980000000E+02
 2.647736962E+03	 7.900000000E+02
 2.651401010E+03	 7.940000000E+02
 2.655063367E+03	 7.980000000E+02
 2.658724034E+03	 7.950000000E+02
 2.662383013E+03	 7.910000000E+02
 2.666040305E+03	 7.870000000E+02
 2.669695912E+03	 7.930000000E+02
 2.673349834E+03	 8.020000000E+02
 2.677002073E+03	 8.110000000E+02
 2.680652630E+03	 8.030000000E+02
 2.684301506E+03	 7.930000000E+02
 2.687948703E+03	 7.830000000E+02
 2.691594222E+03	 8.030000000E+02
 2.695238063E+03	 8.010000000E+02
 2.698880229E+03	 7.870000000E+02
 2.702520721E+03	 8.010000000E+02
 2.706159539E+03	 7.960000000E+02
 2.709796685E+03	 8.100000000E+02
 2.713432160E+03	 8.010000000E+02
 2.717065966E+03	 7.970000000E+02
 2.720698103E+03	 7.990000000E+02
 2.724328573E+03	 7.910000000E+02
 2.727957377E+03	 7.850000000E+02
 2.731584516E+03	 7.890000000E+02
 2.735209992E+03	 7.770000000E+02
 2.738833806E+03	 7.910000000E+02
 2.742455958E+03	 7.880000000E+02
 2.746076451E+03	 7.910000000E+02
 2.749695284E+03	 7.750000000E+02
 2.753312461E+03	 7.890000000E+02
 2.756927981E+03	 7.910000000E+02
 2.760541846E+03	 8.010000000E+02
 2.764154057E+03	 7.870000000E+02
 2.767764616E+03	 7.940000000E+02
 2.771373523E+03	 7.760000000E+02
 2.774980779E+03	 7.810000000E+02
 2.778586387E+03	 8.020000000E+02
 2.782190347E+03	 7.950000000E+02
 2.785792660E+03	 7.850000000E+02
 2.789393327E+03	 7.840000000E+02
 2.792992351E+03	 7.990000000E+02
 2.796589731E+03	 7.970000000E+02
 2.800185469E+03	 8.010000000E+02
 2.803779566E+03	 7.750000000E+02
 2.807372024E+03	 7.950000000E+02
 2.810962843E+03	 8.020000000E+02
 2.814552025E+03	 7.870000000E+02
 2.818139570E+03	 7.870000000E+02
 2.821725481E+03	 7.710000000E+02
 2.825309758E+03	 7.900000000E+02
 2.828892403E+03	 7.890000000E+02
 2.832473416E+03	 7.760000000E+02
 2.836052799E+03	 7.940000000E+02
 2.839630553E+03	 7.910000000E+02
 2.843206678E+03	 7.750000000E+02
 2.846781177E+03	 7.780000000E+02
 2.850354051E+03	 7.860000000E+02
 2.853925300E+03	 7.850000000E+02
 2.857494925E+03	 7.770000000E+02
 2.861062929E+03	 7.890000000E+02
 2.864629311E+03	 7.830000000E+02
 2.868194073E+03	 7.860000000E+02
 2.871757217E+03	 7.800000000E+02
 2.875318743E+03	 7.830000000E+02
 2.878878653E+03	 7.880000000E+02
 2.882436947E+03	 7.760000000E+02
 2.885993627E+03	 7.750000000E+02
 2.889548694E+03	 7.750000000E+02
 2.893102150E+03	 8.000000000E+02
 2.896653994E+03	 7.850000000E+02
 2.900204229E+03	 7.790000000E+02
 2.903752855E+03	 7.800000000E+02
 2.907299874E+03	 7.760000000E+02
 2.910845287E+03	 7.830000000E+02
 2.914389094E+03	 7.880000000E+02
 2.917931297E+03	 7.820000000E+02
 2.921471898E+03	 7.770000000E+02
 2.925010897E+03	 7.820000000E+02
 2.928548295E+03	 7.710000000E+02
 2.932084093E+03	 7.800000000E+02
 2.935618293E+03	 7.870000000E+02
 2.939150896E+03	 7.830000000E+02
 2.942681902E+03	 7.710000000E+02
 2.946211314E+03	 7.700000000E+02
 2.949739131E+03	 7.780000000E+02
 2.953265355E+03	 7.860000000E+02
 2.956789988E+03	 7.730000000E+02
 2.960313030E+03	 7.870000000E+02
 2.963834482E+03	 7.780000000E+02
 2.967354346E+03	 7.690000000E+02
 2.970872622E+03	 7.730000000E+02
 2.974389312E+03	 7.890000000E+02
 2.977904417E+03	 7.800000000E+02
 2.981417938E+03	 7.780000000E+02
 2.984929875E+03	 7.680000000E+02
 2.988440231E+03	 7.760000000E+02
 2.991949005E+03	 7.850000000E+02
 2.995456200E+03	 7.750000000E+02
 2.998961816E+03	 7.750000000E+02
 3.002465855E+03	 7.620000000E+02
 3.005968317E+03	 7.720000000E+02
 3.009469203E+03	 7.800000000E+02
 3.012968515E+03	 7.730000000E+02
 3.016466254E+03	 7.650000000E+02
 3.019962420E+03	 7.730000000E+02
 3.023457015E+03	 7.730000000E+02
 3.026950040E+03	 7.790000000E+02
 3.030441496E+03	 7.730000000E+02
 3.033931384E+03	 7.660000000E+02
 3.037419705E+03	 7.620000000E+02
 3.040906460E+03	 7.740000000E+02
 3.044391650E+03	 7.740000000E+02
 3.047875277E+03	 7.800000000E+02
 3.051357340E+03	 7.660000000E+02
 3.054837842E+03	 7.740000000E+02
 3.058316784E+03	 7.740000000E+02
 3.061794165E+03	 7.660000000E+02
 3.065269989E+03	 7.620000000E+02
 3.068744254E+03	 7.680000000E+02
 3.072216964E+03	 7.710000000E+02
 3.075688118E+03	 7.730000000E+02
 3.079157717E+03	 7.660000000E+02
 3.082625763E+03	 7.780000000E+02
 3.086092257E+03	 7.550000000E+02
 3.089557200E+03	 7.870000000E+02
 3.093020593E+03	 7.630000000E+02
 3.096482436E+03	 7.680000000E+02
 3.099942731E+03	 7.600000000E+02
 3.103401480E+03	 7.720000000E+02
 3.106858682E+03	 7.760000000E+02
 3.110314339E+03	 7.610000000E+02
 3.113768452E+03	 7.660000000E+02
 3.117221021E+03	 7.760000000E+02
 3.120672049E+03	 7.550000000E+02
 3.124121536E+03	 7.690000000E+02
 3.127569483E+03	 7.700000000E+02
 3.131015892E+03	 7.680000000E+02
 3.134460762E+03	 7.750000000E+02
 3.137904095E+03	 7.780000000E+02
 3.141345892E+03	 7.610000000E+02
 3.144786155E+03	 7.700000000E+02
 3.148224883E+03	 7.700000000E+02
 3.151662079E+03	 7.700000000E+02
 3.155097743E+03	 7.660000000E+02
 3.158531876E+03	 7.780000000E+02
 3.161964479E+03	 7.620000000E+02
 3.165395553E+03	 7.630000000E+02
 3.168825100E+03	 7.560000000E+02
 3.172253119E+03	 7.790000000E+02
 3.175679613E+03	 7.630000000E+02
 3.179104582E+03	 7.640000000E+02
 3.182528027E+03	 7.630000000E+02
 3.185949949E+03	 7.650000000E+02
 3.189370349E+03	 7.630000000E+02
 3.192789228E+03	 7.550000000E+02
 3.196206587E+03	 7.720000000E+02
 3.199622428E+03	 7.700000000E+02
 3.203036750E+03	 7.710000000E+02
 3.206449555E+03	 7.540000000E+02
 3.209860845E+03	 7.740000000E+02
 3.213270619E+03	 7.600000000E+02
 3.216678879E+03	 7.680000000E+02
 3.220085627E+03	 7.530000000E+02
 3.223490862E+03	 7.560000000E+02
 3.226894586E+03	 7.650000000E+02
 3.230296799E+03	 7.570000000E+02
 3.233697504E+03	 7.650000000E+02
 3.237096700E+03	 7.550000000E+02
 3.240494389E+03	 7.650000000E+02
 3.243890572E+03	 7.630000000E+02
 3.247285250E+03	 7.680000000E+02
 3.250678423E+03	 7.560000000E+02
 3.254070092E+03	 7.760000000E+02
 3.257460260E+03	 7.770000000E+02
 3.260848925E+03	 7.560000000E+02
 3.264236091E+03	 7.790000000E+02
 3.267621756E+03	 7.550000000E+02
 3.271005923E+03	 7.610000000E+02
 3.274388592E+03	 7.650000000E+02
 3.277769765E+03	 7.690000000E+02
 3.281149441E+03	 7.670000000E+02
 3.284527623E+03	 7.700000000E+02
 3.287904311E+03	 7.660000000E+02
 3.291279506E+03	 7.600000000E+02
 3.294653209E+03	 7.550000000E+02
 3.298025421E+03	 7.610000000E+02
 3.301396143E+03	 7.580000000E+02
 3.304765375E+03	 7.570000000E+02
 3.308133119E+03	 7.700000000E+02
 3.311499376E+03	 7.640000000E+02
 3.314864147E+03	 7.640000000E+02
 3.318227432E+03	 7.600000000E+02
 3.321589232E+03	 7.610000000E+02
 3.324949549E+03	 7.570000000E+02
 3.328308383E+03	 7.600000000E+02
 3.331665735E+03	 7.590000000E+02
 3.335021607E+03	 7.650000000E+02
 3.338375998E+03	 7.610000000E+02
 3.341728911E+03	 7.590000000E+02
 3.345080345E+03	 7.620000000E+02
 3.348430303E+03	 7.580000000E+02
 3.351778784E+03	 7.540000000E+02
 3.355125789E+03	 7.510000000E+02
 3.358471321E+03	 7.510000000E+02
 3.361815378E+03	 7.600000000E+02
 3.365157963E+03	 7.560000000E+02
 3.368499077E+03	 7.510000000E+02
 3.371838720E+03	 7.560000000E+02
 3.375176892E+03	 7.550000000E+02
 3.378513596E+03	 7.540000000E+02
 3.381848832E+03	 7.630000000E+02
 3.385182601E+03	 7.470000000E+02
 3.388514903E+03	 7.670000000E+02
 3.391845740E+03	 7.480000000E+02
 3.395175112E+03	 7.610000000E+02
 3.398503021E+03	 7.510000000E+02
 3.401829467E+03	 7.580000000E+02
 3.405154452E+03	 7.460000000E+02
 3.408477975E+03	 7.560000000E+02
 3.411800039E+03	 7.570000000E+02
 3.415120643E+03	 7.610000000E+02
 3.418439789E+03	 7.530000000E+02
 3.421757478E+03	 7.480000000E+02
 3.425073711E+03	 7.520000000E+02
 3.428388487E+03	 7.640000000E+02
 3.431701809E+03	 7.440000000E+02
 3.435013678E+03	 7.630000000E+02
 3.438324093E+03	 7.570000000E+02
 3.441633056E+03	 7.490000000E+02
 3.444940569E+03	 7.550000000E+02
 3.448246631E+03	 7.660000000E+02
 3.451551243E+03	 7.520000000E+02
 3.454854407E+03	 7.450000000E+02
 3.458156123E+03	 7.500000000E+02
 3.461456393E+03	 7.460000000E+02
 3.464755216E+03	 7.570000000E+02
 3.468052594E+03	 7.570000000E+02
 3.471348529E+03	 7.570000000E+02
 3.474643020E+03	 7.510000000E+02
 3.477936068E+03	 7.500000000E+02
 3.481227675E+03	 7.710000000E+02
 3.484517841E+03	 7.590000000E+02
 3.487806567E+03	 7.560000000E+02
 3.491093854E+03	 7.540000000E+02
 3.494379703E+03	 7.440000000E+02
 3.497664115E+03	 7.450000000E+02
 3.500947090E+03	 7.550000000E+02
 3.504228630E+03	 7.580000000E+02
 3.507508734E+03	 7.470000000E+02
 3.510787405E+03	 7.410000000E+02
 3.514064643E+03	 7.600000000E+02
 3.517340449E+03	 7.530000000E+02
 3.520614823E+03	 7.550000000E+02
 3.523887767E+03	 7.510000000E+02
 3.527159281E+03	 7.480000000E+02
 3.530429367E+03	 7.450000000E+02
 3.533698024E+03	 7.460000000E+02
 3.536965254E+03	 7.630000000E+02
 3.540231058E+03	 7.590000000E+02
 3.543495437E+03	 7.590000000E+02
 3.546758391E+03	 7.510000000E+02
 3.550019921E+03	 7.530000000E+02
 3.553280028E+03	 7.600000000E+02
 3.556538713E+03	 7.480000000E+02
 3.559795977E+03	 7.720000000E+02
 3.563051820E+03	 7.500000000E+02
 3.566306244E+03	 7.480000000E+02
 3.569559249E+03	 7.470000000E+02
 3.572810836E+03	 7.540000000E+02
 3.576061006E+03	 7.710000000E+02
 3.579309759E+03	 7.450000000E+02
 3.582557097E+03	 7.430000000E+02
 3.585803021E+03	 7.470000000E+02
 3.589047530E+03	 7.560000000E+02
 3.592290627E+03	 7.630000000E+02
 3.595532311E+03	 7.440000000E+02
 3.598772584E+03	 7.600000000E+02
 3.602011447E+03	 7.450000000E+02
 3.605248899E+03	 7.420000000E+02
 3.608484943E+03	 7.480000000E+02
 3.611719579E+03	 7.510000000E+02
 3.614952807E+03	 7.630000000E+02
 3.618184629E+03	 7.410000000E+02
 3.621415045E+03	 7.530000000E+02
 3.624644056E+03	 7.590000000E+02
 3.627871664E+03	 7.550000000E+02
 3.631097868E+03	 7.540000000E+02
 3.634322669E+03	 7.540000000E+02
 3.637546069E+03	 7.440000000E+02
 3.640768068E+03	 7.590000000E+02
 3.643988667E+03	 7.580000000E+02
 3.647207867E+03	 7.490000000E+02
 3.650425669E+03	 7.400000000E+02
 3.653642072E+03	 7.490000000E+02
 3.656857079E+03	 7.580000000E+02
 3.660070690E+03	 7.480000000E+02
 3.663282906E+03	 7.540000000E+02
 3.666493727E+03	 7.520000000E+02
 3.669703155E+03	 7.510000000E+02
 3.672911189E+03	 7.370000000E+02
 3.676117832E+03	 7.640000000E+02
 3.679323084E+03	 7.370000000E+02
 3.682526944E+03	 7.470000000E+02
 3.685729416E+03	 7.520000000E+02
 3.688930498E+03	 7.430000000E+02
 3.692130192E+03	 7.400000000E+02
 3.695328499E+03	 7.470000000E+02
 3.698525419E+03	 7.530000000E+02
 3.701720954E+03	 7.460000000E+02
 3.704915104E+03	 7.430000000E+02
 3.708107869E+03	 7.430000000E+02
 3.711299251E+03	 7.550000000E+02
 3.714489251E+03	 7.430000000E+02
 3.717677868E+03	 7.380000000E+02
 3.720865104E+03	 7.500000000E+02
 3.724050961E+03	 7.480000000E+02
 3.727235437E+03	 7.490000000E+02
 3.730418535E+03	 7.480000000E+02
 3.733600255E+03	 7.430000000E+02
 3.736780598E+03	 7.500000000E+02
 3.739959564E+03	 7.570000000E+02
 3.743137155E+03	 7.410000000E+02
 3.746313370E+03	 7.330000000E+02
 3.749488212E+03	 7.480000000E+02
 3.752661680E+03	 7.470000000E+02
 3.755833776E+03	 7.450000000E+02
 3.759004500E+03	 7.420000000E+02
 3.762173852E+03	 7.560000000E+02
 3.765341835E+03	 7.480000000E+02
 3.768508448E+03	 7.420000000E+02
 3.771673692E+03	 7.520000000E+02
 3.774837568E+03	 7.440000000E+02
 3.778000077E+03	 7.490000000E+02
 3.781161220E+03	 7.510000000E+02
 3.784320997E+03	 7.520000000E+02
 3.787479408E+03	 7.470000000E+02
 3.790636456E+03	 7.430000000E+02
 3.793792140E+03	 7.440000000E+02
 3.796946462E+03	 7.460000000E+02
 3.800099421E+03	 7.480000000E+02
 3.803251019E+03	 7.400000000E+02
 3.806401257E+03	 7.500000000E+02
 3.809550136E+03	 7.530000000E+02
 3.812697655E+03	 7.500000000E+02
 3.815843816E+03	 7.330000000E+02
 3.818988620E+03	 7.410000000E+02
 3.822132067E+03	 7.470000000E+02
 3.825274158E+03	 7.490000000E+02
 3.828414894E+03	 7.460000000E+02
 3.831554275E+03	 7.600000000E+02
 3.834692303E+03	 7.460000000E+02
 3.837828977E+03	 7.530000000E+02
 3.840964300E+03	 7.360000000E+02
 3.844098271E+03	 7.400000000E+02
 3.847230891E+03	 7.530000000E+02
 3.850362162E+03	 7.490000000E+02
 3.853492083E+03	 7.380000000E+02
 3.856620656E+03	 7.410000000E+02
 3.859747880E+03	 7.500000000E+02
 3.862873758E+03	 7.370000000E+02
 3.865998290E+03	 7.490000000E+02
 3.869121476E+03	 7.560000000E+02
 3.872243317E+03	 7.450000000E+02
 3.875363814E+03	 7.470000000E+02
 3.878482968E+03	 7.410000000E+02
 3.881600779E+03	 7.360000000E+02
 3.884717248E+03	 7.490000000E+02
 3.887832376E+03	 7.470000000E+02
 3.890946163E+03	 7.400000000E+02
 3.894058611E+03	 7.420000000E+02
 3.897169720E+03	 7.410000000E+02
 3.900279491E+03	 7.410000000E+02
 3.903387924E+03	 7.470000000E+02
 3.906495020E+03	 7.510000000E+02
 3.909600781E+03	 7.470000000E+02
 3.912705206E+03	 7.410000000E+02
 3.915808296E+03	 7.350000000E+02
 3.918910052E+03	 7.600000000E+02
 3.922010476E+03	 7.370000000E+02
 3.925109567E+03	 7.360000000E+02
 3.928207326E+03	 7.630000000E+02
 3.931303754E+03	 7.430000000E+02
 3.934398852E+03	 7.480000000E+02
 3.937492620E+03	 7.470000000E+02
 3.940585060E+03	 7.650000000E+02
 3.943676171E+03	 7.390000000E+02
 3.946765955E+03	 7.520000000E+02
 3.949854412E+03	 7.490000000E+02
 3.952941543E+03	 7.370000000E+02
 3.956027349E+03	 7.470000000E+02
 3.959111831E+03	 7.430000000E+02
 3.962194988E+03	 7.410000000E+02
 3.965276823E+03	 7.540000000E+02
 3.968357335E+03	 7.530000000E+02
 3.971436526E+03	 7.430000000E+02
 3.974514395E+03	 7.510000000E+02
 3.977590944E+03	 7.470000000E+02
 3.980666174E+03	 7.430000000E+02
 3.983740085E+03	 7.510000000E+02
 3.986812678E+03	 7.450000000E+02
 3.989883953E+03	 7.370000000E+02
 3.992953911E+03	 7.480000000E+02
 3.996022554E+03	 7.460000000E+02
 3.999089881E+03	 7.410000000E+02
 4.002155894E+03	 7.500000000E+02
 4.005220593E+03	 7.470000000E+02
 4.008283978E+03	 7.480000000E+02
 4.011346051E+03	 7.420000000E+02
 4.014406812E+03	 7.470000000E+02
 4.017466263E+03	 7.430000000E+02
 4.020524403E+03	 7.490000000E+02
 4.023581233E+03	 7.310000000E+02
 4.026636754E+03	 7.530000000E+02
 4.029690967E+03	 7.510000000E+02
 4.032743872E+03	 7.530000000E+02
 4.035795471E+03	 7.490000000E+02
 4.038845763E+03	 7.430000000E+02
 4.041894750E+03	 7.370000000E+02
 4.044942432E+03	 7.450000000E+02
 4.047988810E+03	 7.400000000E+02
 4.051033885E+03	 7.480000000E+02
 4.054077657E+03	 7.510000000E+02
 4.057120127E+03	 7.600000000E+02
 4.060161296E+03	 7.500000000E+02
 4.063201164E+03	 7.460000000E+02
 4.066239732E+03	 7.420000000E+02
 4.069277001E+03	 7.530000000E+02
 4.072312972E+03	 7.390000000E+02
 4.075347644E+03	 7.440000000E+02
 4.078381020E+03	 7.450000000E+02
 4.081413099E+03	 7.470000000E+02
 4.084443883E+03	 7.380000000E+02
 4.087473371E+03	 7.480000000E+02
 4.090501565E+03	 7.490000000E+02
 4.093528465E+03	 7.530000000E+02
 4.096554073E+03	 7.500000000E+02
 4.099578388E+03	 7.480000000E+02
 4.102601412E+03	 7.510000000E+02
 4.105623144E+03	 7.450000000E+02
 4.108643587E+03	 7.330000000E+02
 4.111662740E+03	 7.470000000E+02
 4.114680604E+03	 7.570000000E+02
 4.117697180E+03	 7.580000000E+02
 4.120712468E+03	 7.630000000E+02
 4.123726470E+03	 7.490000000E+02
 4.126739185E+03	 7.510000000E+02
 4.129750615E+03	 7.520000000E+02
 4.132760761E+03	 7.620000000E+02
 4.135769622E+03	 7.580000000E+02
 4.138777200E+03	 7.700000000E+02
 4.141783496E+03	 7.430000000E+02
 4.144788509E+03	 7.510000000E+02
 4.147792241E+03	 7.440000000E+02
 4.150794693E+03	 7.350000000E+02
 4.153795864E+03	 7.550000000E+02
 4.156795757E+03	 7.490000000E+02
 4.159794370E+03	 7.600000000E+02
 4.162791706E+03	 7.560000000E+02
 4.165787765E+03	 7.680000000E+02
 4.168782547E+03	 7.610000000E+02
 4.171776053E+03	 7.480000000E+02
 4.174768284E+03	 7.730000000E+02
 4.177759241E+03	 7.610000000E+02
 4.180748924E+03	 7.540000000E+02
 4.183737333E+03	 7.750000000E+02
 4.186724471E+03	 7.620000000E+02
 4.189710336E+03	 7.660000000E+02
 4.192694930E+03	 7.700000000E+02
 4.195678254E+03	 7.590000000E+02
 4.198660308E+03	 7.680000000E+02
 4.201641094E+03	 7.650000000E+02
 4.204620610E+03	 7.550000000E+02
 4.207598859E+03	 7.660000000E+02
 4.210575841E+03	 7.630000000E+02
 4.213551557E+03	 7.580000000E+02
 4.216526007E+03	 7.620000000E+02
 4.219499192E+03	 7.640000000E+02
 4.222471113E+03	 7.710000000E+02
 4.225441770E+03	 7.700000000E+02
 4.228411164E+03	 7.700000000E+02
 4.231379296E+03	 7.700000000E+02
 4.234346166E+03	 7.530000000E+02
 4.237311775E+03	 7.700000000E+02
 4.240276124E+03	 7.730000000E+02
 4.243239213E+03	 7.610000000E+02
 4.246201044E+03	 7.740000000E+02
 4.249161616E+03	 7.640000000E+02
 4.252120931E+03	 7.640000000E+02
 4.255078988E+03	 7.860000000E+02
 4.258035790E+03	 7.720000000E+02
 4.260991336E+03	 7.790000000E+02
 4.263945627E+03	 7.660000000E+02
 4.266898664E+03	 7.760000000E+02
 4.269850447E+03	 7.740000000E+02
 4.272800977E+03	 7.690000000E+02
 4.275750255E+03	 7.720000000E+02
 4.278698282E+03	 7.800000000E+02
 4.281645058E+03	 7.750000000E+02
 4.284590584E+03	 7.760000000E+02
 4.287534860E+03	 7.780000000E+02
 4.290477887E+03	 7.750000000E+02
 4.293419666E+03	 7.890000000E+02
 4.296360198E+03	 7.770000000E+02
 4.299299483E+03	 7.870000000E+02
 4.302237522E+03	 7.830000000E+02
 4.305174315E+03	 7.820000000E+02
 4.308109863E+03	 7.750000000E+02
 4.311044167E+03	 7.740000000E+02
 4.313977228E+03	 7.720000000E+02
 4.316909046E+03	 7.640000000E+02
 4.319839622E+03	 7.890000000E+02
 4.322768957E+03	 7.920000000E+02
 4.325697050E+03	 7.750000000E+02
 4.328623904E+03	 7.850000000E+02
 4.331549518E+03	 7.700000000E+02
 4.334473893E+03	 7.890000000E+02
 4.337397031E+03	 7.790000000E+02
 4.340318930E+03	 7.990000000E+02
 4.343239593E+03	 7.850000000E+02
 4.346159020E+03	 8.020000000E+02
 4.349077212E+03	 7.940000000E+02
 4.351994169E+03	 7.850000000E+02
 4.354909891E+03	 7.980000000E+02
 4.357824381E+03	 7.840000000E+02
 4.360737637E+03	 7.840000000E+02
 4.363649662E+03	 7.910000000E+02
 4.366560455E+03	 8.010000000E+02
 4.369470017E+03	 7.880000000E+02
 4.372378349E+03	 7.880000000E+02
 4.375285452E+03	 7.880000000E+02
 4.378191326E+03	 7.950000000E+02
 4.381095972E+03	 7.940000000E+02
 4.383999391E+03	 7.830000000E+02
 4.386901583E+03	 8.050000000E+02
 4.389802549E+03	 7.980000000E+02
 4.392702290E+03	 7.910000000E+02
 4.395600806E+03	 7.950000000E+02
 4.398498098E+03	 7.920000000E+02
 4.401394166E+03	 7.800000000E+02
 4.404289012E+03	 7.940000000E+02
 4.407182636E+03	 7.880000000E+02
 4.410075038E+03	 7.930000000E+02
 4.412966220E+03	 7.830000000E+02
 4.415856182E+03	 8.140000000E+02
 4.418744924E+03	 7.930000000E+02
 4.421632448E+03	 7.980000000E+02
 4.424518754E+03	 8.050000000E+02
 4.427403842E+03	 7.880000000E+02
 4.430287714E+03	 7.870000000E+02
 4.433170370E+03	 7.940000000E+02
 4.436051810E+03	 8.000000000E+02
 4.438932036E+03	 8.150000000E+02
 4.441811048E+03	 7.910000000E+02
 4.444688847E+03	 7.920000000E+02
 4.447565433E+03	 7.930000000E+02
 4.450440807E+03	 8.150000000E+02
 4.453314969E+03	 8.100000000E+02
 4.456187922E+03	 8.100000000E+02
 4.459059664E+03	 8.060000000E+02
 4.461930197E+03	 8.040000000E+02
 4.464799521E+03	 7.890000000E+02
 4.467667638E+03	 8.060000000E+02
 4.470534547E+03	 7.840000000E+02
 4.473400250E+03	 7.870000000E+02
 4.476264746E+03	 8.180000000E+02
 4.479128038E+03	 8.010000000E+02
 4.481990125E+03	 7.950000000E+02
 4.484851008E+03	 8.150000000E+02
 4.487710688E+03	 8.100000000E+02
 4.490569165E+03	 8.070000000E+02
 4.493426441E+03	 7.980000000E+02
 4.496282515E+03	 7.970000000E+02
 4.499137389E+03	 7.990000000E+02
 4.501991063E+03	 8.150000000E+02
 4.504843538E+03	 8.140000000E+02
 4.507694815E+03	 8.050000000E+02
 4.510544893E+03	 8.000000000E+02
 4.513393775E+03	 8.250000000E+02
 4.516241460E+03	 8.160000000E+02
 4.519087949E+03	 8.150000000E+02
 4.521933244E+03	 8.100000000E+02
 4.524777344E+03	 8.030000000E+02
