1042.414189	686.5
1042.980685	685.0
1043.547124	684.5
1044.113505	687.5
1044.679828	688.25
1045.246093	682.5
1045.8123	683.25
1046.378449	681.75
1046.94454	681.75
1047.510573	680.75
1048.076548	684.75
1048.642465	683.25
1049.208325	682.5
1049.774126	681.25
1050.339869	682.75
1050.905555	680.25
1051.471183	678.75
1052.036752	683.0
1052.602264	680.5
1053.167718	681.5
1053.733114	677.25
1054.298452	679.75
1054.863733	679.25
1055.428955	676.75
1055.994119	677.25
1056.559226	679.0
1057.124275	680.0
1057.689266	678.75
1058.254199	680.0
1058.819074	675.25
1059.383891	676.25
1059.94865	677.0
1060.513352	678.5
1061.077996	673.75
1061.642582	675.5
1062.20711	679.75
1062.77158	676.0
1063.335992	675.25
1063.900347	675.25
1064.464643	673.75
1065.028882	674.75
1065.593063	674.5
1066.157187	678.0
1066.721252	674.75
1067.28526	672.25
1067.84921	675.0
1068.413102	675.25
1068.976936	677.75
1069.540713	674.75
1070.104431	682.25
1070.668092	678.75
1071.231696	677.75
1071.795241	672.75
1072.358729	679.0
1072.922159	674.5
1073.485531	673.75
1074.048845	675.75
1074.612102	674.0
1075.175301	672.75
1075.738442	676.0
1076.301525	677.5
1076.864551	675.25
1077.427519	676.0
1077.990429	672.75
1078.553281	675.5
1079.116076	676.25
1079.678813	676.5
1080.241492	674.5
1080.804114	669.75
1081.366678	671.5
1081.929184	675.5
1082.491633	675.25
1083.054024	674.25
1083.616357	674.75
1084.178632	674.0
1084.74085	675.75
1085.30301	671.75
1085.865113	675.0
1086.427158	675.0
1086.989145	673.25
1087.551074	674.25
1088.112946	673.0
1088.67476	676.75
1089.236517	674.0
1089.798216	672.0
1090.359857	675.25
1090.92144	675.0
1091.482966	672.0
1092.044435	673.0
1092.605845	672.5
1093.167199	675.75
1093.728494	671.25
1094.289732	673.25
1094.850912	675.75
1095.412035	673.75
1095.9731	675.0
1096.534107	673.0
1097.095057	681.0
1097.65595	673.25
1098.216784	676.5
1098.777561	673.25
1099.338281	670.0
1099.898943	675.75
1100.459547	673.5
1101.020094	673.5
1101.580584	670.75
1102.141015	675.0
1102.701389	673.75
1103.261706	673.25
1103.821965	673.5
1104.382167	674.0
1104.942311	674.0
1105.502397	674.0
1106.062426	674.5
1106.622398	672.75
1107.182312	669.0
1107.742168	674.0
1108.301967	669.5
1108.861708	677.5
1109.421392	674.0
1109.981019	674.0
1110.540587	674.75
1111.100099	673.75
1111.659553	671.0
1112.218949	671.75
1112.778288	675.0
1113.33757	670.75
1113.896794	673.5
1114.45596	671.75
1115.015069	673.0
1115.574121	671.5
1116.133115	672.25
1116.692052	675.25
1117.250931	677.5
1117.809753	672.25
1118.368517	673.25
1118.927224	670.5
1119.485873	675.5
1120.044465	670.25
1120.603	675.0
1121.161477	676.0
1121.719897	673.5
1122.278259	675.25
1122.836564	673.0
1123.394812	674.0
1123.953002	671.5
1124.511135	667.75
1125.06921	670.25
1125.627228	674.75
1126.185189	670.75
1126.743092	674.0
1127.300938	671.25
1127.858726	671.0
1128.416457	671.25
1128.974131	667.75
1129.531748	670.75
1130.089307	670.75
1130.646808	671.0
1131.204252	672.5
1131.761639	667.75
1132.318969	671.0
1132.876241	671.5
1133.433456	668.75
1133.990614	674.75
1134.547714	671.75
1135.104757	671.0
1135.661743	672.25
1136.218671	671.0
1136.775542	670.5
1137.332356	671.5
1137.889112	670.0
1138.445811	671.25
1139.002453	673.5
1139.559037	669.5
1140.115565	672.0
1140.672035	672.5
1141.228447	668.75
1141.784803	668.25
1142.341101	672.75
1142.897342	672.25
1143.453525	675.5
1144.009651	669.25
1144.565721	670.5
1145.121732	673.75
1145.677687	670.0
1146.233584	670.25
1146.789424	670.5
1147.345207	675.25
1147.900933	674.25
1148.456601	669.5
1149.012212	669.0
1149.567766	673.5
1150.123263	671.75
1150.678702	671.75
1151.234085	667.75
1151.78941	672.25
1152.344678	669.75
1152.899888	672.0
1153.455042	668.0
1154.010138	670.0
1154.565177	670.25
1155.120159	670.25
1155.675084	670.25
1156.229951	671.75
1156.784762	672.5
1157.339515	670.0
1157.894211	667.75
1158.44885	670.0
1159.003432	669.5
1159.557956	673.75
1160.112424	672.25
1160.666834	670.0
1161.221187	669.25
1161.775483	671.25
1162.329722	671.75
1162.883904	670.75
1163.438029	672.5
1163.992096	671.0
1164.546107	668.5
1165.10006	670.5
1165.653956	668.5
1166.207795	671.5
1166.761577	671.5
1167.315302	671.5
1167.86897	671.75
1168.422581	671.5
1168.976134	669.0
1169.529631	674.25
1170.08307	674.0
1170.636453	671.0
1171.189778	671.0
1171.743046	671.25
1172.296257	669.25
1172.849412	671.75
1173.402509	670.5
1173.955549	669.0
1174.508532	669.25
1175.061458	670.75
1175.614327	671.0
1176.167138	670.25
1176.719893	672.75
1177.272591	669.25
1177.825232	671.25
1178.377816	669.25
1178.930342	671.75
1179.482812	669.75
1180.035225	672.75
1180.587581	669.25
1181.139879	671.0
1181.692121	670.5
1182.244306	669.5
1182.796434	672.25
1183.348504	672.0
1183.900518	670.25
1184.452475	669.5
1185.004375	668.25
1185.556218	669.5
1186.108004	670.25
1186.659733	671.0
1187.211405	672.5
1187.76302	672.5
1188.314578	668.75
1188.866079	671.75
1189.417523	669.5
1189.96891	670.5
1190.520241	671.5
1191.071514	670.25
1191.622731	668.5
1192.17389	670.25
1192.724993	671.5
1193.276039	690.75
1193.827027	668.0
1194.377959	673.25
1194.928834	669.0
1195.479653	670.75
1196.030414	670.5
1196.581118	672.75
1197.131766	668.5
1197.682356	669.75
1198.23289	673.5
1198.783367	673.25
1199.333786	670.25
1199.88415	670.0
1200.434456	673.5
1200.984705	672.25
1201.534898	669.5
1202.085033	669.5
1202.635112	670.0
1203.185134	669.5
1203.735099	666.5
1204.285007	671.0
1204.834859	667.5
1205.384653	672.75
1205.934391	672.25
1206.484072	670.25
1207.033696	671.25
1207.583263	671.0
1208.132774	672.5
1208.682228	671.25
1209.231624	667.5
1209.780965	673.0
1210.330248	669.5
1210.879474	671.0
1211.428644	670.5
1211.977757	671.75
1212.526813	671.0
1213.075813	671.5
1213.624755	674.0
1214.173641	669.75
1214.72247	670.0
1215.271242	672.75
1215.819958	672.25
1216.368617	670.5
1216.917219	671.0
1217.465764	670.5
1218.014253	671.25
1218.562685	673.0
1219.11106	672.0
1219.659378	670.75
1220.20764	674.25
1220.755845	672.0
1221.303993	671.0
1221.852085	674.25
1222.400119	675.0
1222.948097	670.25
1223.496019	668.5
1224.043883	674.0
1224.591691	671.25
1225.139443	668.25
1225.687137	673.75
1226.234775	676.25
1226.782357	676.25
1227.329881	670.5
1227.877349	669.0
1228.42476	671.75
1228.972115	673.25
1229.519413	674.0
1230.066654	666.5
1230.613839	670.75
1231.160967	672.25
1231.708038	672.5
1232.255053	671.25
1232.802011	672.0
1233.348912	674.0
1233.895757	669.75
1234.442545	672.25
1234.989277	672.75
1235.535951	668.25
1236.08257	671.25
1236.629131	671.0
1237.175636	673.0
1237.722085	672.5
1238.268477	673.5
1238.814812	668.0
1239.361091	675.0
1239.907313	674.25
1240.453478	674.0
1240.999587	675.25
1241.54564	671.5
1242.091636	672.5
1242.637575	673.25
1243.183457	674.0
1243.729284	670.75
1244.275053	673.0
1244.820766	674.75
1245.366423	672.5
1245.912022	671.0
1246.457566	674.25
1247.003053	673.25
1247.548483	674.75
1248.093857	675.5
1248.639174	673.0
1249.184435	674.5
1249.729639	675.75
1250.274787	673.75
1250.819878	674.25
1251.364912	674.0
1251.909891	673.0
1252.454812	675.25
1252.999677	672.0
1253.544486	675.25
1254.089238	674.5
1254.633934	675.0
1255.178573	673.75
1255.723156	668.75
1256.267682	675.25
1256.812152	675.0
1257.356565	676.5
1257.900922	676.25
1258.445223	678.0
1258.989467	678.5
1259.533654	680.25
1260.077785	691.5
1260.62186	678.0
1261.165878	677.0
1261.70984	678.75
1262.253745	679.25
1262.797594	685.25
1263.341386	689.5
1263.885123	693.75
1264.428802	696.5
1264.972425	695.5
1265.515992	692.5
1266.059503	681.75
1266.602957	677.75
1267.146354	679.5
1267.689696	680.0
1268.23298	678.75
1268.776209	675.5
1269.319381	678.25
1269.862497	677.75
1270.405556	676.25
1270.948559	675.5
1271.491506	677.5
1272.034396	675.5
1272.57723	676.25
1273.120007	675.5
1273.662728	674.25
1274.205393	676.25
1274.748002	675.25
1275.290554	679.25
1275.83305	676.5
1276.375489	675.5
1276.917872	679.5
1277.460199	675.25
1278.00247	677.5
1278.544684	680.75
1279.086842	679.5
1279.628943	679.75
1280.170989	684.25
1280.712978	684.5
1281.25491	685.25
1281.796787	697.25
1282.338607	712.75
1282.880371	740.75
1283.422078	812.75
1283.963729	935.0
1284.505324	1052.0
1285.046863	995.0
1285.588345	830.25
1286.129772	741.25
1286.671142	710.25
1287.212455	691.75
1287.753713	687.25
1288.294914	687.75
1288.836059	683.25
1289.377147	680.25
1289.91818	678.5
1290.459156	677.25
1291.000076	676.25
1291.54094	678.75
1292.081747	677.0
1292.622499	676.5
1293.163194	673.0
1293.703833	676.0
1294.244415	674.75
1294.784942	676.5
1295.325412	673.25
1295.865826	674.5
1296.406184	674.5
1296.946486	676.75
1297.486731	671.75
1298.026921	678.75
1298.567054	676.25
1299.107131	675.0
1299.647152	675.75
1300.187116	677.0
1300.727025	673.75
1301.266877	676.0
1301.806673	678.25
1302.346413	676.25
1302.886097	675.0
1303.425725	674.0
1303.965297	673.0
1304.504812	677.75
1305.044272	679.0
1305.583675	676.25
1306.123022	677.25
1306.662313	676.25
1307.201548	672.5
1307.740727	676.75
1308.279849	675.75
1308.818916	672.75
1309.357926	675.5
1309.896881	672.5
1310.435779	671.5
1310.974621	673.5
1311.513407	673.25
1312.052137	674.75
1312.590811	675.25
1313.129429	673.0
1313.667991	674.25
1314.206497	672.75
1314.744946	676.25
1315.28334	673.25
1315.821678	671.0
1316.359959	673.5
1316.898184	676.25
1317.436354	673.25
1317.974467	671.75
1318.512525	675.75
1319.050526	674.5
1319.588471	673.5
1320.12636	674.75
1320.664194	673.0
1321.201971	673.25
1321.739692	672.75
1322.277357	674.75
1322.814967	674.25
1323.35252	673.5
1323.890017	677.5
1324.427458	676.75
1324.964843	673.25
1325.502173	677.0
1326.039446	670.5
1326.576663	675.25
1327.113824	675.25
1327.65093	675.5
1328.187979	674.0
1328.724972	675.5
1329.26191	674.5
1329.798791	675.5
1330.335617	669.25
1330.872386	670.75
1331.4091	671.25
1331.945758	674.0
1332.48236	677.25
1333.018905	673.75
1333.555395	677.5
1334.091829	673.5
1334.628207	674.5
1335.164529	673.25
1335.700796	678.25
1336.237006	674.75
1336.77316	674.0
1337.309259	675.25
1337.845301	671.25
1338.381288	674.5
1338.917219	678.5
1339.453094	673.0
1339.988913	670.75
1340.524676	677.25
1341.060383	674.75
1341.596034	673.0
1342.13163	673.75
1342.66717	673.25
1343.202653	675.25
1343.738081	672.25
1344.273453	671.0
1344.80877	674.0
1345.34403	672.25
1345.879235	675.75
1346.414383	674.0
1346.949476	676.5
1347.484513	674.0
1348.019494	674.25
1348.55442	674.5
1349.089289	677.25
1349.624103	676.5
1350.158861	675.75
1350.693563	674.75
1351.228209	673.5
1351.7628	672.5
1352.297334	674.5
1352.831813	676.25
1353.366236	675.0
1353.900604	675.5
1354.434915	676.0
1354.969171	676.25
1355.503371	675.25
1356.037515	677.25
1356.571604	671.25
1357.105636	675.5
1357.639613	674.25
1358.173535	677.25
1358.7074	675.5
1359.24121	672.75
1359.774964	676.0
1360.308662	677.0
1360.842304	677.75
1361.375891	672.25
1361.909422	674.75
1362.442897	675.0
1362.976317	675.5
1363.50968	674.0
1364.042989	675.75
1364.576241	674.75
1365.109438	677.5
1365.642579	679.75
1366.175664	677.25
1366.708693	673.5
1367.241667	673.5
1367.774585	677.0
1368.307448	678.0
1368.840255	677.0
1369.373006	678.25
1369.905701	690.0
1370.438341	687.5
1370.970925	680.25
1371.503454	675.0
1372.035926	678.25
1372.568344	675.75
1373.100705	673.0
1373.633011	677.25
1374.165261	676.75
1374.697456	682.75
1375.229595	675.0
1375.761678	676.25
1376.293705	677.5
1376.825677	675.75
1377.357594	673.0
1377.889455	679.0
1378.42126	675.25
1378.953009	679.0
1379.484703	674.75
1380.016342	682.5
1380.547924	676.5
1381.079452	677.0
1381.610923	683.0
1382.142339	685.25
1382.673699	679.25
1383.205004	683.75
1383.736253	682.25
1384.267447	686.75
1384.798585	694.0
1385.329668	700.75
1385.860695	713.75
1386.391666	733.5
1386.922582	795.0
1387.453442	980.0
1387.984247	1342.0
1388.514996	1389.0
1389.04569	988.25
1389.576328	780.75
1390.10691	721.25
1390.637437	701.75
1391.167909	691.75
1391.698325	694.0
1392.228685	688.0
1392.75899	681.0
1393.28924	684.5
1393.819434	682.5
1394.349572	682.0
1394.879655	677.5
1395.409683	680.5
1395.939655	675.5
1396.469571	682.25
1396.999432	676.25
1397.529237	675.75
1398.058987	678.0
1398.588682	679.25
1399.118321	677.25
1399.647905	677.0
1400.177433	680.75
1400.706906	676.5
1401.236323	678.75
1401.765685	678.25
1402.294991	676.25
1402.824242	679.75
1403.353437	677.5
1403.882577	677.5
1404.411662	677.25
1404.940691	675.5
1405.469665	676.5
1405.998583	677.0
1406.527446	680.0
1407.056253	683.5
1407.585005	688.25
1408.113702	690.25
1408.642343	703.25
1409.170929	713.0
1409.69946	720.75
1410.227935	710.0
1410.756354	698.5
1411.284719	684.0
1411.813028	682.25
1412.341281	677.0
1412.869479	675.5
1413.397622	674.5
1413.92571	676.5
1414.453742	678.25
1414.981718	672.25
1415.50964	687.0
1416.037506	675.25
1416.565316	673.75
1417.093072	676.0
1417.620772	675.5
1418.148416	676.0
1418.676005	675.5
1419.203539	675.0
1419.731018	674.0
1420.258441	672.5
1420.785809	676.25
1421.313122	676.5
1421.840379	674.75
1422.367582	672.5
1422.894728	676.0
1423.42182	673.0
1423.948856	679.0
1424.475837	675.25
1425.002762	678.5
1425.529633	678.5
1426.056448	676.25
1426.583207	676.75
1427.109912	673.5
1427.636561	678.75
1428.163155	673.5
1428.689694	674.5
1429.216177	674.0
1429.742605	673.5
1430.268978	672.25
1430.795296	673.0
1431.321558	675.0
1431.847765	674.25
1432.373917	677.25
1432.900014	672.5
1433.426056	673.25
1433.952042	672.75
1434.477973	674.5
1435.003849	674.0
1435.529669	673.25
1436.055435	671.75
1436.581145	671.25
1437.1068	671.75
1437.632399	673.75
1438.157944	671.5
1438.683433	673.5
1439.208868	671.5
1439.734247	673.75
1440.25957	670.5
1440.784839	672.75
1441.310053	670.5
1441.835211	674.25
1442.360314	673.25
1442.885362	670.75
1443.410355	673.0
1443.935292	671.5
1444.460175	672.25
1444.985002	674.5
1445.509774	673.5
1446.034491	674.0
1446.559153	672.5
1447.08376	673.5
1447.608312	673.0
1448.132808	673.25
1448.65725	670.75
1449.181636	672.75
1449.705967	669.5
1450.230243	674.25
1450.754464	670.25
1451.27863	671.0
1451.802741	672.0
1452.326797	673.25
1452.850797	672.25
1453.374743	673.25
1453.898633	670.5
1454.422468	669.5
1454.946249	671.75
1455.469974	670.75
1455.993644	671.25
1456.517259	674.0
1457.040819	670.75
1457.564324	671.0
1458.087773	673.5
1458.611168	672.0
1459.134508	672.5
1459.657793	671.25
1460.181022	672.0
1460.704197	675.0
1461.227316	674.0
1461.750381	673.25
1462.27339	671.75
1462.796345	677.25
1463.319244	673.5
1463.842089	676.25
1464.364878	673.25
1464.887613	668.75
1465.410292	670.75
1465.932916	673.0
1466.455486	669.25
1466.978	671.75
1467.50046	671.0
1468.022864	671.75
1468.545214	673.0
1469.067508	673.75
1469.589748	669.5
1470.111932	673.0
1470.634062	671.5
1471.156136	671.75
1471.678156	673.0
1472.20012	672.25
1472.72203	669.5
1473.243885	670.5
1473.765685	672.0
1474.28743	672.0
1474.80912	672.5
1475.330755	668.5
1475.852335	674.75
1476.37386	671.75
1476.89533	670.25
1477.416745	669.75
1477.938106	672.0
1478.459411	672.75
1478.980662	670.75
1479.501857	674.25
1480.022998	669.25
1480.544084	666.5
1481.065115	670.0
1481.586091	670.25
1482.107012	674.0
1482.627878	668.5
1483.14869	672.75
1483.669446	670.0
1484.190148	670.75
1484.710794	671.25
1485.231386	667.75
1485.751923	674.25
1486.272406	670.75
1486.792833	673.5
1487.313205	672.0
1487.833523	669.5
1488.353786	669.25
1488.873994	672.5
1489.394147	670.75
1489.914245	673.25
1490.434288	669.0
1490.954277	669.25
1491.474211	670.75
1491.99409	670.5
1492.513914	672.5
1493.033683	672.0
1493.553398	670.25
1494.073057	672.0
1494.592662	672.75
1495.112212	672.25
1495.631708	671.25
1496.151148	672.25
1496.670534	673.75
1497.189865	671.0
1497.709141	669.25
1498.228362	685.5
1499.785698	678.5
1500.3047	672.5
1500.823648	669.5
1501.34254	669.75
1501.861379	671.75
1502.380162	671.75
1502.89889	669.25
1503.417564	671.75
1503.936183	672.25
1504.454748	669.0
1504.973257	671.0
1505.491712	670.0
1506.010112	674.0
1506.528458	669.75
1507.046748	669.0
1507.564984	671.75
1508.083166	670.5
1508.601292	671.0
1509.119364	671.0
1509.637381	673.25
1510.155344	671.5
1510.673252	680.25
1511.191105	668.5
1511.708903	673.75
1512.226647	674.25
1512.744336	671.75
1513.261971	672.0
1513.77955	670.75
1514.297076	668.25
1514.814546	671.25
1515.331962	672.5
1515.849323	670.75
1516.366629	671.5
1516.883881	670.25
1517.401078	669.5
1517.918221	671.0
1518.435309	671.75
1518.952342	670.25
1519.469321	672.75
1519.986245	670.25
1520.503114	670.25
1521.019929	676.25
1521.536689	673.5
1522.053395	669.75
1522.570046	670.25
1523.086642	672.0
1523.603184	670.25
1524.119671	672.0
1524.636103	672.0
1525.152481	671.25
1525.668805	674.25
1526.185073	672.5
1526.701288	672.5
1527.217447	674.0
1527.733552	670.25
1528.249603	672.5
1528.765599	673.25
1529.28154	672.75
1529.797427	669.25
1530.313259	670.5
1530.829037	670.0
1531.34476	671.0
1531.860429	670.75
1532.376043	676.25
1532.891602	669.5
1533.407107	670.25
1533.922558	670.25
1534.437954	671.75
1534.953295	672.25
1535.468582	668.75
1535.983815	670.25
1536.498993	668.0
1537.014116	669.25
1537.529185	672.5
1538.044199	670.75
1538.559159	674.5
1539.074064	671.75
1539.588915	671.5
1540.103712	669.5
1540.618454	673.0
1541.133141	674.0
1541.647774	673.25
1542.162353	668.75
1542.676877	670.75
1543.191346	667.75
1543.705761	670.75
1544.220122	673.0
1544.734428	672.0
1545.24868	671.5
1545.762877	671.75
1546.27702	669.75
1546.791109	673.0
1547.305143	672.25
1547.819122	674.5
1548.333047	673.5
1548.846918	671.25
1549.360734	671.75
1549.874496	673.0
1550.388204	670.0
1550.901857	669.5
1551.415455	673.5
1551.929	672.25
1552.442489	671.5
1552.955925	670.0
1553.469306	673.0
1553.982632	669.5
1554.495905	672.0
1555.009123	671.75
1555.522286	671.75
1556.035395	671.25
1556.54845	669.5
1557.06145	671.75
1557.574396	671.5
1558.087288	670.5
1558.600125	670.75
1559.112908	672.0
1559.625637	673.0
1560.138311	672.75
1560.650931	674.5
1561.163497	669.5
1561.676008	674.5
1562.188465	670.5
1562.700867	674.0
1563.213216	669.0
1563.725509	671.5
1564.237749	675.75
1564.749934	669.5
1565.262065	674.5
1565.774142	671.0
1566.286164	673.25
1566.798132	672.5
1567.310046	672.75
1567.821906	672.75
1568.333711	671.25
1568.845462	672.5
1569.357158	671.75
1569.868801	672.75
1570.380389	672.25
1570.891922	668.75
1571.403402	674.0
1571.914827	672.0
1572.426198	672.75
1572.937515	671.75
1573.448777	674.0
1573.959985	674.5
1574.471139	674.25
1574.982239	671.0
1575.493285	670.75
1576.004276	673.0
1576.515213	673.0
1577.026096	675.25
1577.536924	673.25
1578.047698	672.25
1578.558419	669.75
1579.069084	674.25
1579.579696	669.5
1580.090254	672.75
1580.600757	669.75
1581.111206	670.75
1581.621601	668.75
1582.131941	670.75
1582.642228	670.25
1583.15246	672.0
1583.662638	671.0
1584.172762	671.25
1584.682832	671.75
1585.192847	668.5
1585.702809	669.25
1586.212716	669.5
1586.722569	673.0
1587.232368	668.5
1587.742113	672.75
1588.251803	671.0
1588.76144	671.75
1589.271022	671.0
1589.78055	669.5
1590.290024	670.75
1590.799444	672.5
1591.30881	669.75
1591.818121	668.5
1592.327379	670.5
