1042.414189	726.0
1042.980685	720.75
1043.547124	729.5
1044.113505	726.0
1044.679828	720.25
1045.246093	722.25
1045.8123	723.0
1046.378449	719.75
1046.94454	718.75
1047.510573	718.5
1048.076548	713.25
1048.642465	714.0
1049.208325	719.0
1049.774126	719.0
1050.339869	721.0
1050.905555	712.0
1051.471183	716.25
1052.036752	710.25
1052.602264	716.5
1053.167718	716.25
1053.733114	710.5
1054.298452	706.25
1054.863733	708.75
1055.428955	716.0
1055.994119	712.75
1056.559226	704.25
1057.124275	708.25
1057.689266	709.75
1058.254199	709.0
1058.819074	709.5
1059.383891	705.0
1059.94865	708.5
1060.513352	707.25
1061.077996	709.75
1061.642582	704.75
1062.20711	700.0
1062.77158	702.25
1063.335992	704.75
1063.900347	705.75
1064.464643	699.25
1065.028882	704.25
1065.593063	701.75
1066.157187	704.75
1066.721252	699.75
1067.28526	704.25
1067.84921	697.75
1068.413102	700.25
1068.976936	698.0
1069.540713	698.25
1070.104431	708.0
1070.668092	696.25
1071.231696	698.25
1071.795241	701.5
1072.358729	700.25
1072.922159	698.0
1073.485531	697.0
1074.048845	694.0
1074.612102	699.5
1075.175301	693.5
1075.738442	703.5
1076.301525	696.25
1076.864551	696.5
1077.427519	699.25
1077.990429	699.25
1078.553281	695.5
1079.116076	697.25
1079.678813	692.0
1080.241492	698.5
1080.804114	695.25
1081.366678	699.0
1081.929184	693.5
1082.491633	696.75
1083.054024	693.75
1083.616357	697.75
1084.178632	695.75
1084.74085	696.25
1085.30301	697.0
1085.865113	692.75
1086.427158	692.5
1086.989145	692.5
1087.551074	690.0
1088.112946	693.0
1088.67476	694.0
1089.236517	693.75
1089.798216	695.5
1090.359857	692.25
1090.92144	693.25
1091.482966	691.75
1092.044435	689.5
1092.605845	697.25
1093.167199	692.0
1093.728494	692.5
1094.289732	692.5
1094.850912	692.5
1095.412035	692.5
1095.9731	690.0
1096.534107	691.75
1097.095057	698.0
1097.65595	688.75
1098.216784	692.0
1098.777561	692.75
1099.338281	693.0
1099.898943	690.25
1100.459547	690.5
1101.020094	691.5
1101.580584	691.75
1102.141015	693.0
1102.701389	691.0
1103.261706	693.0
1103.821965	692.75
1104.382167	690.5
1104.942311	692.0
1105.502397	690.0
1106.062426	690.5
1106.622398	688.25
1107.182312	689.0
1107.742168	689.25
1108.301967	690.5
1108.861708	687.75
1109.421392	690.75
1109.981019	689.5
1110.540587	686.5
1111.100099	693.5
1111.659553	693.75
1112.218949	687.0
1112.778288	688.0
1113.33757	686.0
1113.896794	687.75
1114.45596	686.25
1115.015069	687.75
1115.574121	685.5
1116.133115	687.75
1116.692052	689.5
1117.250931	690.75
1117.809753	690.25
1118.368517	686.75
1118.927224	691.0
1119.485873	688.0
1120.044465	686.5
1120.603	690.5
1121.161477	686.75
1121.719897	687.5
1122.278259	687.5
1122.836564	686.75
1123.394812	683.0
1123.953002	692.0
1124.511135	683.75
1125.06921	686.75
1125.627228	690.0
1126.185189	687.75
1126.743092	684.5
1127.300938	682.5
1127.858726	689.75
1128.416457	688.0
1128.974131	688.5
1129.531748	688.5
1130.089307	688.0
1130.646808	686.25
1131.204252	687.25
1131.761639	684.75
1132.318969	684.25
1132.876241	689.5
1133.433456	688.0
1133.990614	683.5
1134.547714	685.25
1135.104757	685.75
1135.661743	684.25
1136.218671	683.75
1136.775542	681.25
1137.332356	688.25
1137.889112	685.75
1138.445811	684.25
1139.002453	686.25
1139.559037	682.75
1140.115565	683.75
1140.672035	681.25
1141.228447	681.75
1141.784803	687.75
1142.341101	685.0
1142.897342	680.75
1143.453525	685.75
1144.009651	683.25
1144.565721	683.0
1145.121732	682.75
1145.677687	682.75
1146.233584	682.25
1146.789424	684.25
1147.345207	682.5
1147.900933	682.75
1148.456601	682.0
1149.012212	682.75
1149.567766	683.0
1150.123263	683.0
1150.678702	683.0
1151.234085	681.0
1151.78941	683.5
1152.344678	683.0
1152.899888	681.75
1153.455042	680.75
1154.010138	685.5
1154.565177	680.25
1155.120159	685.25
1155.675084	683.5
1156.229951	682.5
1156.784762	681.25
1157.339515	679.75
1157.894211	683.75
1158.44885	682.25
1159.003432	684.0
1159.557956	683.0
1160.112424	681.5
1160.666834	679.75
1161.221187	680.75
1161.775483	681.5
1162.329722	685.5
1162.883904	679.25
1163.438029	682.0
1163.992096	680.5
1164.546107	680.25
1165.10006	681.25
1165.653956	679.5
1166.207795	681.75
1166.761577	682.75
1167.315302	685.0
1167.86897	682.75
1168.422581	684.75
1168.976134	684.25
1169.529631	683.75
1170.08307	680.75
1170.636453	685.25
1171.189778	682.25
1171.743046	682.5
1172.296257	682.5
1172.849412	682.25
1173.402509	684.0
1173.955549	681.0
1174.508532	680.25
1175.061458	683.25
1175.614327	681.75
1176.167138	684.0
1176.719893	681.25
1177.272591	679.75
1177.825232	680.75
1178.377816	682.75
1178.930342	682.75
1179.482812	685.25
1180.035225	684.5
1180.587581	680.0
1181.139879	680.0
1181.692121	679.5
1182.244306	686.5
1182.796434	681.0
1183.348504	683.0
1183.900518	686.25
1184.452475	682.5
1185.004375	681.75
1185.556218	681.0
1186.108004	682.0
1186.659733	680.5
1187.211405	679.5
1187.76302	681.5
1188.314578	678.75
1188.866079	681.0
1189.417523	681.25
1189.96891	685.0
1190.520241	679.5
1191.071514	682.0
1191.622731	682.25
1192.17389	681.75
1192.724993	687.0
1193.276039	702.0
1193.827027	684.0
1194.377959	679.5
1194.928834	682.0
1195.479653	685.0
1196.030414	678.75
1196.581118	683.5
1197.131766	681.75
1197.682356	685.0
1198.23289	685.75
1198.783367	683.25
1199.333786	680.5
1199.88415	682.5
1200.434456	677.25
1200.984705	679.25
1201.534898	684.25
1202.085033	679.5
1202.635112	680.5
1203.185134	682.5
1203.735099	680.25
1204.285007	678.0
1204.834859	682.0
1205.384653	681.0
1205.934391	680.5
1206.484072	681.0
1207.033696	681.5
1207.583263	679.25
1208.132774	685.0
1208.682228	684.25
1209.231624	681.75
1209.780965	681.75
1210.330248	679.0
1210.879474	681.75
1211.428644	683.0
1211.977757	685.5
1212.526813	684.25
1213.075813	683.25
1213.624755	682.5
1214.173641	683.75
1214.72247	681.25
1215.271242	680.5
1215.819958	683.25
1216.368617	681.75
1216.917219	679.0
1217.465764	683.25
1218.014253	684.0
1218.562685	679.5
1219.11106	680.25
1219.659378	681.0
1220.20764	679.25
1220.755845	682.25
1221.303993	682.25
1221.852085	681.0
1222.400119	683.5
1222.948097	681.75
1223.496019	681.25
1224.043883	686.75
1224.591691	680.0
1225.139443	679.25
1225.687137	683.5
1226.234775	684.25
1226.782357	680.5
1227.329881	682.5
1227.877349	678.0
1228.42476	684.0
1228.972115	681.75
1229.519413	686.5
1230.066654	681.0
1230.613839	680.75
1231.160967	677.5
1231.708038	684.5
1232.255053	685.0
1232.802011	686.5
1233.348912	684.0
1233.895757	683.25
1234.442545	684.0
1234.989277	679.5
1235.535951	683.0
1236.08257	684.25
1236.629131	685.5
1237.175636	682.75
1237.722085	683.5
1238.268477	683.75
1238.814812	682.75
1239.361091	685.0
1239.907313	684.0
1240.453478	687.0
1240.999587	684.0
1241.54564	682.0
1242.091636	682.75
1242.637575	684.25
1243.183457	686.5
1243.729284	686.25
1244.275053	685.75
1244.820766	684.25
1245.366423	688.25
1245.912022	689.0
1246.457566	686.5
1247.003053	689.75
1247.548483	689.0
1248.093857	687.0
1248.639174	687.5
1249.184435	685.5
1249.729639	684.5
1250.274787	683.25
1250.819878	687.5
1251.364912	688.5
1251.909891	688.5
1252.454812	687.5
1252.999677	687.0
1253.544486	688.5
1254.089238	688.25
1254.633934	691.75
1255.178573	692.5
1255.723156	695.25
1256.267682	696.75
1256.812152	695.0
1257.356565	699.25
1257.900922	697.5
1258.445223	700.75
1258.989467	702.25
1259.533654	703.5
1260.077785	726.0
1260.62186	710.0
1261.165878	712.0
1261.70984	710.5
1262.253745	706.75
1262.797594	710.75
1263.341386	704.5
1263.885123	700.75
1264.428802	696.5
1264.972425	699.5
1265.515992	699.5
1266.059503	699.25
1266.602957	700.0
1267.146354	698.5
1267.689696	697.25
1268.23298	698.75
1268.776209	696.25
1269.319381	697.25
1269.862497	700.5
1270.405556	694.5
1270.948559	694.75
1271.491506	693.75
1272.034396	700.25
1272.57723	696.25
1273.120007	698.0
1273.662728	697.75
1274.205393	701.25
1274.748002	702.5
1275.290554	703.75
1275.83305	706.75
1276.375489	710.75
1276.917872	713.25
1277.460199	725.0
1278.00247	729.0
1278.544684	743.75
1279.086842	775.75
1279.628943	847.5
1280.170989	980.25
1280.712978	1202.75
1281.25491	1283.25
1281.796787	1101.5
1282.338607	921.0
1282.880371	818.75
1283.422078	762.75
1283.963729	742.75
1284.505324	727.75
1285.046863	719.75
1285.588345	711.5
1286.129772	718.0
1286.671142	704.75
1287.212455	707.0
1287.753713	701.5
1288.294914	698.5
1288.836059	703.0
1289.377147	697.25
1289.91818	696.5
1290.459156	698.0
1291.000076	695.5
1291.54094	695.25
1292.081747	693.25
1292.622499	694.25
1293.163194	694.25
1293.703833	690.75
1294.244415	691.75
1294.784942	695.0
1295.325412	695.25
1295.865826	691.5
1296.406184	692.25
1296.946486	689.25
1297.486731	694.75
1298.026921	691.0
1298.567054	694.0
1299.107131	691.75
1299.647152	691.75
1300.187116	692.75
1300.727025	690.25
1301.266877	689.5
1301.806673	691.0
1302.346413	690.25
1302.886097	693.0
1303.425725	691.25
1303.965297	692.0
1304.504812	691.5
1305.044272	689.5
1305.583675	690.0
1306.123022	689.75
1306.662313	690.25
1307.201548	688.75
1307.740727	690.25
1308.279849	689.0
1308.818916	683.75
1309.357926	689.5
1309.896881	689.0
1310.435779	684.25
1310.974621	692.0
1311.513407	687.25
1312.052137	684.25
1312.590811	688.75
1313.129429	688.5
1313.667991	687.75
1314.206497	684.0
1314.744946	688.75
1315.28334	686.25
1315.821678	689.75
1316.359959	685.0
1316.898184	692.0
1317.436354	687.5
1317.974467	691.0
1318.512525	691.0
1319.050526	690.0
1319.588471	689.25
1320.12636	687.0
1320.664194	687.25
1321.201971	691.0
1321.739692	688.0
1322.277357	687.25
1322.814967	688.25
1323.35252	688.25
1323.890017	698.75
1324.427458	686.75
1324.964843	688.75
1325.502173	691.75
1326.039446	684.75
1326.576663	686.75
1327.113824	685.5
1327.65093	688.0
1328.187979	693.0
1328.724972	684.75
1329.26191	691.0
1329.798791	689.5
1330.335617	686.75
1330.872386	686.75
1331.4091	690.0
1331.945758	688.0
1332.48236	688.75
1333.018905	689.25
1333.555395	688.5
1334.091829	689.25
1334.628207	690.0
1335.164529	690.5
1335.700796	690.25
1336.237006	685.75
1336.77316	685.5
1337.309259	687.75
1337.845301	688.25
1338.381288	686.5
1338.917219	686.25
1339.453094	684.75
1339.988913	684.0
1340.524676	687.0
1341.060383	687.0
1341.596034	688.5
1342.13163	689.5
1342.66717	691.25
1343.202653	689.5
1343.738081	690.0
1344.273453	689.0
1344.80877	688.0
1345.34403	688.5
1345.879235	689.25
1346.414383	687.75
1346.949476	687.0
1347.484513	688.75
1348.019494	685.75
1348.55442	686.5
1349.089289	691.25
1349.624103	688.0
1350.158861	688.0
1350.693563	691.5
1351.228209	689.25
1351.7628	691.0
1352.297334	685.75
1352.831813	687.5
1353.366236	687.5
1353.900604	691.0
1354.434915	690.75
1354.969171	687.5
1355.503371	688.5
1356.037515	684.5
1356.571604	691.5
1357.105636	688.75
1357.639613	688.25
1358.173535	691.25
1358.7074	687.25
1359.24121	691.75
1359.774964	694.5
1360.308662	688.0
1360.842304	690.0
1361.375891	690.75
1361.909422	693.75
1362.442897	694.75
1362.976317	694.25
1363.50968	695.75
1364.042989	696.75
1364.576241	689.25
1365.109438	692.25
1365.642579	694.25
1366.175664	696.75
1366.708693	693.25
1367.241667	696.5
1367.774585	694.0
1368.307448	705.75
1368.840255	708.25
1369.373006	716.25
1369.905701	708.0
1370.438341	702.25
1370.970925	702.5
1371.503454	700.0
1372.035926	695.75
1372.568344	699.25
1373.100705	700.5
1373.633011	698.0
1374.165261	694.75
1374.697456	699.75
1375.229595	701.25
1375.761678	703.75
1376.293705	705.5
1376.825677	703.5
1377.357594	702.25
1377.889455	704.5
1378.42126	709.25
1378.953009	706.25
1379.484703	712.5
1380.016342	717.25
1380.547924	719.5
1381.079452	723.5
1381.610923	725.5
1382.142339	733.25
1382.673699	742.75
1383.205004	760.5
1383.736253	786.5
1384.267447	833.0
1384.798585	926.75
1385.329668	1106.5
1385.860695	1472.0
1386.391666	1841.5
1386.922582	1663.0
1387.453442	1240.75
1387.984247	975.0
1388.514996	863.75
1389.04569	809.25
1389.576328	774.75
1390.10691	749.75
1390.637437	739.75
1391.167909	729.5
1391.698325	725.0
1392.228685	724.0
1392.75899	716.5
1393.28924	715.0
1393.819434	714.25
1394.349572	707.0
1394.879655	706.75
1395.409683	708.5
1395.939655	708.75
1396.469571	702.5
1396.999432	704.75
1397.529237	704.5
1398.058987	711.0
1398.588682	703.75
1399.118321	705.0
1399.647905	700.5
1400.177433	703.0
1400.706906	706.5
1402.294991	704.75
1402.824242	704.25
1403.353437	709.5
1403.882577	709.75
1404.411662	707.25
1404.940691	711.5
1405.469665	719.25
1405.998583	720.0
1406.527446	722.5
1407.056253	732.0
1407.585005	728.5
1408.113702	727.5
1408.642343	727.25
1409.170929	722.75
1409.69946	717.0
1410.227935	714.75
1410.756354	707.0
1411.284719	706.75
1411.813028	699.5
1412.341281	701.25
1412.869479	692.0
1413.397622	696.5
1413.92571	694.0
1414.453742	691.75
1414.981718	692.0
1415.50964	704.25
1416.037506	685.5
1416.565316	689.25
1417.093072	692.0
1417.620772	690.0
1418.148416	691.0
1418.676005	687.75
1419.203539	685.75
1419.731018	686.5
1420.258441	685.5
1420.785809	687.25
1421.313122	687.25
1421.840379	688.5
1422.367582	687.75
1422.894728	688.0
1423.42182	688.0
1423.948856	688.75
1424.475837	691.25
1425.002762	684.75
1425.529633	688.75
1426.056448	688.25
1426.583207	685.5
1427.109912	683.5
1427.636561	684.5
1428.163155	687.25
1428.689694	685.25
1429.216177	682.5
1429.742605	684.25
1430.268978	682.0
1430.795296	686.5
1431.321558	684.75
1431.847765	681.25
1432.373917	683.25
1432.900014	679.75
1433.426056	685.0
1433.952042	680.5
1434.477973	685.75
1435.003849	687.25
1435.529669	687.0
1436.055435	682.25
1436.581145	682.5
1437.1068	683.75
1437.632399	685.25
1438.157944	678.75
1438.683433	684.25
1439.208868	681.25
1439.734247	684.5
1440.25957	681.75
1440.784839	683.0
1441.310053	680.25
1441.835211	683.0
1442.360314	686.0
1442.885362	685.5
1443.410355	681.75
1443.935292	682.0
1444.460175	680.75
1444.985002	683.25
1445.509774	684.5
1446.034491	681.5
1446.559153	683.0
1447.08376	683.0
1447.608312	685.5
1448.132808	682.25
1448.65725	681.0
1449.181636	681.0
1449.705967	683.0
1450.230243	680.0
1450.754464	681.75
1451.27863	687.25
1451.802741	685.75
1452.326797	684.0
1452.850797	682.75
1453.374743	679.5
1453.898633	680.25
1454.422468	682.5
1454.946249	683.75
1455.469974	686.0
1455.993644	678.75
1456.517259	678.0
1457.040819	683.75
1457.564324	682.25
1458.087773	682.75
1458.611168	683.25
1459.134508	682.75
1459.657793	682.25
1460.181022	681.75
1460.704197	681.0
1461.227316	682.5
1461.750381	681.0
1462.27339	678.75
1462.796345	684.25
1463.319244	682.25
1463.842089	680.25
1464.364878	679.75
1464.887613	680.75
1465.410292	680.75
1465.932916	678.5
1466.455486	682.5
1466.978	681.5
1467.50046	678.5
1468.022864	684.0
1468.545214	679.0
1469.067508	679.75
1469.589748	681.75
1470.111932	684.75
1470.634062	679.75
1471.156136	680.0
1471.678156	686.5
1472.20012	680.75
1472.72203	679.5
1473.243885	681.0
1473.765685	680.0
1474.28743	680.25
1474.80912	682.5
1475.330755	679.75
1475.852335	679.75
1476.37386	679.25
1476.89533	681.25
1477.416745	682.75
1477.938106	683.75
1478.459411	681.25
1478.980662	680.25
1479.501857	684.5
1480.022998	681.5
1480.544084	682.0
1481.065115	677.75
1481.586091	680.75
1482.107012	682.5
1482.627878	680.25
1483.14869	679.0
1483.669446	681.25
1484.190148	679.5
1484.710794	676.75
1485.231386	679.0
1485.751923	683.75
1486.272406	679.75
1486.792833	679.5
1487.313205	679.5
1487.833523	679.25
1488.353786	678.5
1488.873994	684.0
1489.394147	681.75
1489.914245	678.75
1490.434288	679.25
1490.954277	677.75
1491.474211	681.25
1491.99409	680.75
1492.513914	681.0
1493.033683	682.25
1493.553398	680.5
1494.073057	679.25
1494.592662	681.75
1495.112212	679.25
1495.631708	680.25
1496.151148	677.25
1496.670534	682.0
1497.189865	679.75
1497.709141	680.5
1498.228362	683.75
1498.747529	681.0
1499.266641	682.0
1499.785698	688.5
1500.3047	677.75
1500.823648	681.25
1501.34254	679.25
1501.861379	681.25
1502.380162	681.5
1502.89889	680.75
1503.417564	683.75
1503.936183	680.75
1504.454748	682.75
1504.973257	677.0
1505.491712	681.25
1506.010112	678.75
1506.528458	678.0
1507.046748	680.5
1507.564984	679.0
1508.083166	680.5
1508.601292	679.5
1509.119364	679.5
1509.637381	681.25
1510.155344	681.0
1510.673252	686.0
1511.191105	681.75
1511.708903	681.0
1512.226647	680.5
1512.744336	684.25
1513.261971	678.75
1513.77955	679.5
1514.297076	680.75
1514.814546	677.25
1515.331962	680.25
1515.849323	678.75
1516.366629	681.25
1516.883881	681.5
1517.401078	676.5
1517.918221	680.25
1518.435309	678.0
1518.952342	681.5
1519.469321	679.75
1519.986245	679.25
1520.503114	681.25
1521.019929	682.25
1521.536689	677.5
1522.053395	680.75
1522.570046	681.25
1523.086642	680.0
1523.603184	681.5
1524.119671	680.25
1524.636103	679.25
1525.152481	681.5
1525.668805	681.0
1526.185073	681.25
1526.701288	686.25
1527.217447	679.0
1527.733552	678.75
1528.249603	678.75
1528.765599	679.75
1529.28154	680.5
1529.797427	680.75
1530.313259	682.25
1530.829037	678.25
1531.34476	681.0
1531.860429	684.0
1532.376043	679.0
1532.891602	681.25
1533.407107	673.75
1533.922558	678.75
1534.437954	680.5
1534.953295	684.5
1535.468582	682.5
1535.983815	678.75
1536.498993	677.75
1537.014116	680.25
1537.529185	680.25
1538.044199	683.5
1538.559159	680.75
1539.074064	679.5
1539.588915	677.25
1540.103712	679.25
1540.618454	682.75
1541.133141	679.5
1541.647774	680.5
1542.162353	679.0
1542.676877	680.25
1543.191346	679.25
1543.705761	680.25
1544.220122	677.5
1544.734428	682.0
1545.24868	678.5
1545.762877	678.5
1546.27702	680.25
1546.791109	681.75
1547.305143	679.5
1547.819122	680.5
1548.333047	679.75
1548.846918	675.75
1549.360734	679.0
1549.874496	676.5
1550.388204	681.0
1550.901857	681.0
1551.415455	680.5
1551.929	678.0
1552.442489	681.5
1552.955925	679.5
1553.469306	678.75
1553.982632	678.75
1554.495905	677.5
1555.009123	681.5
1555.522286	677.75
1556.035395	677.75
1556.54845	678.0
1557.06145	683.5
1557.574396	680.25
1558.087288	679.0
1558.600125	680.0
1559.112908	678.0
1559.625637	682.25
1560.138311	678.5
1560.650931	678.25
1561.163497	680.0
1561.676008	676.25
1562.188465	680.0
1562.700867	681.5
1563.213216	678.75
1563.725509	681.25
1564.237749	678.25
1564.749934	682.75
1565.262065	680.75
1565.774142	677.75
1566.286164	680.0
1566.798132	680.25
1567.310046	681.75
1567.821906	682.75
1568.333711	681.5
1568.845462	679.0
1569.357158	680.25
1569.868801	677.75
1570.380389	679.0
1570.891922	678.25
1571.403402	680.5
1571.914827	679.5
1572.426198	678.75
1572.937515	681.5
1573.448777	680.0
1573.959985	677.75
1574.471139	678.0
1574.982239	682.0
1575.493285	682.25
1576.004276	680.0
1576.515213	676.0
1577.026096	682.0
1577.536924	680.25
1578.047698	677.75
1578.558419	677.75
1579.069084	683.0
1579.579696	678.5
1580.090254	678.0
1580.600757	680.75
1581.111206	682.5
1581.621601	677.75
1582.131941	679.75
1582.642228	675.25
1583.15246	679.75
1583.662638	685.0
1584.172762	682.25
1584.682832	680.5
1585.192847	680.75
1585.702809	679.5
1586.212716	678.5
1586.722569	682.75
1587.232368	675.75
1587.742113	683.5
1588.251803	676.5
1588.76144	680.5
1589.271022	677.0
1589.78055	679.75
1590.290024	676.75
1590.799444	681.0
1591.30881	679.75
1591.818121	683.0
1592.327379	679.75
