1042.980685	708.0
1043.547124	711.5
1044.113505	713.25
1044.679828	715.0
1045.246093	711.25
1045.8123	709.0
1046.378449	710.0
1046.94454	710.0
1047.510573	710.0
1048.076548	709.0
1048.642465	703.75
1049.208325	704.0
1049.774126	701.0
1050.339869	703.75
1050.905555	704.25
1051.471183	699.25
1052.036752	703.75
1052.602264	700.75
1053.167718	706.0
1053.733114	695.75
1054.298452	699.0
1054.863733	701.75
1055.428955	701.25
1055.994119	699.25
1056.559226	696.0
1057.124275	697.0
1057.689266	693.25
1058.254199	696.25
1058.819074	698.75
1059.383891	695.5
1059.94865	694.5
1060.513352	692.0
1061.077996	693.5
1061.642582	692.75
1062.20711	693.5
1062.77158	693.5
1063.335992	692.25
1063.900347	691.5
1064.464643	690.75
1065.028882	688.0
1065.593063	690.75
1066.157187	689.0
1066.721252	692.5
1067.28526	691.25
1067.84921	692.75
1068.413102	690.75
1068.976936	687.5
1069.540713	689.25
1070.104431	701.75
1070.668092	692.5
1071.231696	687.5
1071.795241	687.75
1072.358729	690.5
1072.922159	691.25
1073.485531	684.75
1074.048845	690.25
1074.612102	686.5
1075.175301	687.0
1075.738442	684.25
1076.301525	690.25
1076.864551	686.0
1077.427519	686.5
1077.990429	684.25
1078.553281	685.0
1079.116076	682.75
1079.678813	686.25
1080.241492	684.5
1080.804114	681.75
1081.366678	684.75
1081.929184	689.75
1082.491633	684.5
1083.054024	684.0
1083.616357	683.75
1084.178632	688.0
1084.74085	686.25
1085.30301	683.25
1085.865113	684.25
1086.427158	687.0
1086.989145	680.5
1087.551074	685.25
1088.112946	683.0
1088.67476	684.25
1089.236517	682.75
1089.798216	685.75
1090.359857	681.25
1090.92144	680.5
1091.482966	685.5
1092.044435	682.0
1092.605845	683.0
1093.167199	683.5
1093.728494	687.0
1094.289732	680.0
1094.850912	683.5
1095.412035	686.75
1095.9731	682.5
1096.534107	684.5
1097.095057	687.25
1097.65595	684.0
1098.216784	682.25
1098.777561	682.25
1099.338281	686.75
1099.898943	680.5
1100.459547	681.5
1101.020094	682.5
1101.580584	678.75
1102.141015	678.5
1102.701389	681.75
1103.261706	677.75
1103.821965	683.5
1104.382167	680.0
1104.942311	679.25
1105.502397	681.5
1106.062426	682.75
1106.622398	679.75
1107.182312	680.75
1107.742168	678.5
1108.301967	683.75
1108.861708	681.5
1109.421392	679.75
1109.981019	682.25
1110.540587	680.5
1111.100099	676.5
1111.659553	682.75
1112.218949	683.0
1112.778288	681.75
1113.33757	677.25
1113.896794	680.25
1114.45596	679.5
1115.015069	683.0
1115.574121	679.0
1116.133115	682.25
1116.692052	677.75
1117.250931	683.25
1117.809753	678.5
1118.368517	679.5
1118.927224	681.75
1119.485873	679.75
1120.044465	681.0
1120.603	681.25
1121.161477	680.25
1121.719897	676.0
1122.278259	676.0
1122.836564	677.75
1123.394812	677.5
1123.953002	677.75
1124.511135	678.0
1125.06921	678.75
1125.627228	677.0
1126.185189	681.0
1126.743092	679.25
1127.300938	677.5
1127.858726	679.0
1128.416457	681.25
1128.974131	676.75
1129.531748	676.75
1130.089307	677.5
1130.646808	673.5
1131.204252	680.25
1131.761639	676.75
1132.318969	677.0
1132.876241	675.5
1133.433456	680.0
1133.990614	677.25
1134.547714	674.25
1135.104757	675.25
1135.661743	675.75
1136.218671	675.25
1136.775542	673.5
1137.332356	675.0
1137.889112	676.0
1138.445811	675.0
1139.002453	674.25
1139.559037	677.25
1140.115565	675.75
1140.672035	675.0
1141.228447	675.0
1141.784803	676.0
1142.341101	677.25
1142.897342	672.5
1143.453525	675.75
1144.009651	676.5
1144.565721	674.0
1145.121732	673.5
1145.677687	674.75
1146.233584	672.5
1146.789424	676.0
1147.345207	677.5
1147.900933	675.25
1148.456601	675.0
1149.012212	671.75
1149.567766	677.75
1150.123263	672.5
1150.678702	674.5
1151.234085	673.5
1151.78941	674.0
1152.344678	671.25
1152.899888	675.75
1153.455042	674.25
1154.010138	669.25
1154.565177	675.75
1155.120159	674.5
1155.675084	675.0
1156.229951	670.25
1156.784762	673.75
1157.339515	671.5
1157.894211	674.0
1158.44885	673.0
1159.003432	674.0
1159.557956	674.25
1160.112424	672.25
1160.666834	673.5
1161.221187	674.5
1161.775483	673.5
1162.329722	673.0
1162.883904	675.25
1163.438029	672.25
1163.992096	673.25
1164.546107	672.0
1165.10006	676.25
1165.653956	673.0
1166.207795	671.0
1166.761577	675.5
1167.315302	673.75
1167.86897	670.75
1168.422581	671.0
1168.976134	672.75
1169.529631	672.75
1170.08307	673.0
1170.636453	673.75
1171.189778	668.0
1171.743046	674.25
1172.296257	670.75
1172.849412	670.0
1173.402509	669.75
1173.955549	671.75
1174.508532	674.0
1175.061458	673.0
1175.614327	671.75
1176.167138	671.75
1176.719893	673.25
1177.272591	676.0
1177.825232	672.75
1178.377816	676.0
1178.930342	672.0
1179.482812	674.25
1180.035225	673.25
1180.587581	671.5
1181.139879	676.25
1181.692121	672.0
1182.244306	676.0
1182.796434	674.5
1183.348504	672.5
1183.900518	673.25
1184.452475	675.5
1185.004375	672.0
1185.556218	673.0
1186.108004	674.5
1186.659733	672.0
1187.211405	672.0
1187.76302	674.5
1188.314578	669.0
1188.866079	672.75
1189.417523	675.75
1189.96891	672.0
1190.520241	673.75
1191.071514	674.0
1191.622731	678.0
1192.17389	672.25
1192.724993	671.0
1193.276039	696.5
1193.827027	672.5
1194.377959	670.25
1194.928834	672.25
1195.479653	674.0
1196.030414	673.0
1196.581118	676.25
1197.131766	674.25
1197.682356	675.5
1198.23289	674.25
1198.783367	673.5
1199.333786	674.5
1199.88415	672.5
1200.434456	672.5
1200.984705	675.0
1201.534898	670.75
1202.085033	674.25
1202.635112	673.25
1203.185134	675.0
1203.735099	675.75
1204.285007	673.75
1204.834859	674.5
1205.384653	673.75
1205.934391	670.5
1206.484072	677.0
1207.033696	674.0
1207.583263	675.25
1208.132774	671.5
1208.682228	674.75
1209.231624	675.5
1209.780965	673.5
1210.330248	671.5
1210.879474	675.0
1211.428644	676.5
1211.977757	671.25
1212.526813	673.25
1213.075813	674.75
1213.624755	672.25
1214.173641	672.25
1214.72247	676.25
1215.271242	675.25
1215.819958	670.25
1216.368617	674.5
1216.917219	674.25
1217.465764	672.25
1218.014253	671.0
1218.562685	674.75
1219.11106	672.25
1219.659378	675.0
1220.20764	675.5
1220.755845	673.0
1221.303993	673.75
1221.852085	673.25
1222.400119	673.0
1222.948097	673.25
1223.496019	670.25
1224.043883	674.5
1224.591691	674.0
1225.139443	674.25
1225.687137	673.0
1226.234775	672.0
1226.782357	672.5
1227.329881	673.0
1227.877349	675.25
1228.42476	672.25
1228.972115	676.5
1229.519413	675.0
1230.066654	673.0
1230.613839	674.25
1231.160967	672.25
1231.708038	675.5
1232.255053	675.0
1232.802011	675.0
1233.348912	675.0
1233.895757	674.5
1234.442545	676.5
1234.989277	675.5
1235.535951	675.5
1236.08257	674.25
1236.629131	671.75
1237.175636	674.0
1237.722085	674.5
1238.268477	675.5
1238.814812	676.75
1239.361091	676.75
1239.907313	675.75
1240.453478	678.25
1240.999587	678.75
1241.54564	678.75
1242.091636	678.25
1242.637575	676.25
1243.183457	677.5
1243.729284	676.75
1244.275053	679.0
1244.820766	676.75
1245.366423	677.5
1245.912022	677.5
1246.457566	677.75
1247.003053	676.5
1247.548483	681.25
1248.093857	677.25
1248.639174	681.25
1249.184435	677.5
1249.729639	681.25
1250.274787	676.25
1250.819878	677.5
1251.364912	682.75
1251.909891	680.75
1252.454812	680.75
1252.999677	680.75
1253.544486	686.25
1254.089238	683.75
1254.633934	685.0
1255.178573	680.5
1255.723156	690.5
1256.267682	689.75
1256.812152	698.5
1257.356565	698.0
1257.900922	695.5
1258.445223	701.75
1258.989467	704.25
1259.533654	708.25
1260.077785	726.75
1260.62186	717.75
1261.165878	713.25
1261.70984	712.75
1262.253745	708.75
1262.797594	707.5
1263.341386	703.25
1263.885123	698.5
1264.428802	700.5
1264.972425	698.25
1265.515992	697.25
1266.059503	695.75
1266.602957	695.75
1267.146354	695.75
1267.689696	692.5
1268.23298	697.75
1268.776209	696.0
1269.319381	695.75
1269.862497	691.0
1270.405556	695.0
1270.948559	697.0
1271.491506	693.5
1272.034396	699.25
1272.57723	696.0
1273.120007	695.75
1273.662728	698.75
1274.205393	698.0
1274.748002	704.0
1275.290554	706.0
1275.83305	711.5
1276.375489	714.5
1276.917872	716.0
1277.460199	730.5
1278.00247	741.0
1278.544684	769.25
1279.086842	815.25
1279.628943	922.25
1280.170989	1151.5
1280.712978	1489.75
1281.25491	1543.75
1281.796787	1276.75
1282.338607	1008.75
1282.880371	864.5
1283.422078	800.0
1283.963729	762.75
1284.505324	740.75
1285.046863	727.0
1285.588345	717.75
1286.129772	709.0
1286.671142	706.25
1287.212455	705.75
1287.753713	702.0
1288.294914	698.5
1288.836059	697.5
1289.377147	697.0
1289.91818	694.25
1290.459156	691.75
1291.000076	689.25
1291.54094	692.25
1292.081747	691.25
1292.622499	690.0
1293.163194	691.25
1293.703833	692.25
1294.244415	685.0
1294.784942	686.25
1295.325412	690.5
1295.865826	687.0
1296.406184	689.25
1296.946486	686.25
1297.486731	688.0
1298.026921	692.75
1298.567054	685.75
1299.107131	683.75
1299.647152	683.75
1300.187116	685.0
1300.727025	683.75
1301.266877	683.5
1301.806673	680.75
1302.346413	683.75
1302.886097	685.5
1303.425725	682.25
1303.965297	680.25
1304.504812	685.25
1305.044272	684.5
1305.583675	683.0
1306.123022	685.0
1306.662313	686.0
1307.201548	682.0
1307.740727	685.25
1308.279849	687.0
1308.818916	682.25
1309.357926	681.25
1309.896881	685.25
1310.435779	679.75
1310.974621	684.0
1311.513407	679.5
1312.052137	684.75
1312.590811	682.5
1313.129429	681.25
1313.667991	680.75
1314.206497	682.75
1314.744946	680.75
1315.28334	683.25
1315.821678	683.25
1316.359959	680.5
1316.898184	682.25
1317.436354	680.0
1317.974467	681.75
1318.512525	678.25
1319.050526	681.75
1319.588471	681.5
1320.12636	681.25
1320.664194	680.0
1321.201971	682.75
1321.739692	681.75
1322.277357	686.0
1322.814967	679.5
1323.35252	677.75
1323.890017	689.25
1324.427458	682.75
1324.964843	679.25
1325.502173	687.25
1326.039446	681.5
1326.576663	685.25
1327.113824	683.0
1327.65093	682.5
1328.187979	683.5
1328.724972	682.75
1329.26191	684.75
1329.798791	684.25
1330.335617	683.0
1330.872386	686.25
1331.4091	682.25
1331.945758	682.25
1332.48236	681.75
1333.018905	685.75
1333.555395	682.0
1334.091829	681.25
1334.628207	682.0
1335.164529	680.5
1335.700796	684.5
1336.237006	682.25
1336.77316	685.0
1337.309259	682.0
1337.845301	682.25
1338.381288	684.25
1338.917219	684.25
1339.453094	684.5
1339.988913	678.5
1340.524676	681.75
1341.060383	679.5
1341.596034	684.0
1342.13163	682.0
1342.66717	681.0
1343.202653	683.0
1343.738081	682.25
1344.273453	685.5
1344.80877	683.25
1345.34403	680.75
1345.879235	684.0
1346.414383	681.0
1346.949476	686.25
1347.484513	681.5
1348.019494	685.25
1348.55442	682.0
1349.089289	680.0
1349.624103	685.0
1350.158861	678.25
1350.693563	682.5
1351.228209	684.25
1351.7628	682.75
1352.297334	684.75
1352.831813	685.0
1353.366236	682.25
1353.900604	683.25
1354.434915	685.0
1354.969171	684.25
1355.503371	682.75
1356.037515	683.5
1356.571604	684.75
1357.105636	682.5
1357.639613	680.25
1358.173535	684.25
1358.7074	683.0
1359.24121	683.0
1359.774964	682.75
1360.308662	684.75
1360.842304	685.75
1361.375891	687.0
1361.909422	687.25
1362.442897	685.75
1362.976317	689.25
1363.50968	690.75
1364.042989	689.75
1364.576241	687.5
1365.109438	689.25
1365.642579	689.0
1366.175664	689.75
1366.708693	689.25
1367.241667	696.5
1367.774585	690.0
1368.307448	697.75
1368.840255	712.0
1369.373006	722.0
1369.905701	713.75
1370.438341	701.25
1370.970925	694.5
1371.503454	694.25
1372.035926	696.75
1372.568344	699.25
1373.100705	697.75
1373.633011	696.75
1374.165261	695.25
1374.697456	698.5
1375.229595	698.25
1375.761678	699.0
1376.293705	701.25
1376.825677	703.0
1377.357594	709.75
1377.889455	706.0
1378.42126	714.5
1378.953009	711.25
1379.484703	713.0
1380.016342	719.0
1380.547924	723.75
1381.079452	729.0
1381.610923	736.75
1382.142339	751.5
1382.673699	769.75
1383.205004	792.5
1383.736253	834.0
1384.267447	911.5
1384.798585	1024.0
1385.329668	1320.0
1385.860695	1863.25
1386.391666	2393.0
1386.922582	2158.75
1387.453442	1497.25
1387.984247	1123.5
1388.514996	940.0
1389.04569	850.5
1389.576328	805.75
1390.10691	779.5
1390.637437	752.25
1391.167909	742.0
1391.698325	730.75
1392.228685	726.0
1392.75899	720.75
1393.28924	719.0
1393.819434	715.0
1394.349572	711.5
1394.879655	712.25
1395.409683	707.5
1395.939655	708.5
1396.469571	705.25
1396.999432	703.5
1397.529237	704.75
1398.058987	704.0
1398.588682	702.75
1399.118321	705.0
1399.647905	707.75
1400.177433	704.75
1400.706906	699.5
1401.236323	707.5
1401.765685	704.75
1402.294991	709.75
1402.824242	707.5
1403.353437	705.75
1403.882577	708.75
1404.411662	711.5
1404.940691	714.5
1405.469665	721.5
1405.998583	727.75
1406.527446	729.0
1407.056253	744.25
1407.585005	742.5
1408.113702	741.0
1408.642343	741.25
1409.170929	731.5
1409.69946	729.5
1410.227935	717.5
1410.756354	713.0
1411.284719	705.25
1411.813028	700.25
1412.341281	698.5
1412.869479	690.5
1413.397622	694.0
1413.92571	687.0
1414.453742	688.75
1414.981718	693.75
1415.50964	699.5
1416.037506	684.25
1416.565316	683.5
1417.093072	682.0
1417.620772	684.5
1418.148416	681.0
1418.676005	682.25
1419.203539	682.75
1419.731018	679.0
1420.258441	685.25
1420.785809	680.75
1421.313122	680.0
1421.840379	680.75
1422.367582	676.25
1422.894728	680.5
1423.42182	679.25
1423.948856	676.75
1424.475837	681.0
1425.002762	681.0
1425.529633	676.5
1426.056448	679.5
1426.583207	677.5
1427.109912	677.5
1427.636561	678.25
1428.163155	677.5
1428.689694	673.5
1429.216177	678.0
1429.742605	674.25
1430.268978	678.25
1430.795296	679.75
1431.321558	675.5
1431.847765	675.25
1432.373917	678.25
1432.900014	678.0
1433.426056	674.25
1433.952042	675.0
1434.477973	678.0
1435.003849	677.5
1435.529669	675.5
1436.055435	679.75
1436.581145	674.0
1437.1068	676.25
1437.632399	676.25
1438.157944	675.25
1438.683433	675.5
1439.208868	675.0
1439.734247	672.0
1440.25957	674.25
1440.784839	674.5
1441.310053	677.0
1441.835211	674.0
1442.360314	673.0
1442.885362	670.75
1443.410355	677.0
1443.935292	675.0
1444.460175	673.5
1444.985002	676.25
1445.509774	674.25
1446.034491	674.5
1446.559153	674.25
1447.08376	674.25
1447.608312	674.25
1448.132808	673.25
1448.65725	672.75
1449.181636	675.25
1449.705967	674.5
1450.230243	675.25
1450.754464	672.0
1451.27863	667.75
1451.802741	675.25
1452.326797	675.75
1452.850797	671.5
1453.374743	674.0
1453.898633	672.75
1454.422468	673.75
1454.946249	675.25
1455.469974	674.5
1455.993644	671.5
1456.517259	672.75
1457.040819	673.25
1457.564324	672.75
1458.087773	674.75
1458.611168	675.0
1459.134508	673.5
1459.657793	672.25
1460.181022	670.0
1460.704197	676.75
1461.227316	676.75
1461.750381	671.75
1462.27339	672.25
1462.796345	675.75
1463.319244	675.0
1463.842089	675.75
1464.364878	674.0
1464.887613	673.5
1465.410292	671.75
1465.932916	671.0
1466.455486	672.75
1466.978	673.75
1467.50046	672.5
1468.022864	668.25
1468.545214	674.5
1469.067508	672.5
1469.589748	673.25
1470.111932	676.75
1470.634062	669.25
1471.156136	672.25
1471.678156	670.75
1472.20012	675.75
1472.72203	671.5
1473.243885	672.5
1473.765685	673.75
1474.28743	673.0
1474.80912	671.0
1475.330755	675.0
1475.852335	670.5
1476.37386	671.5
1476.89533	671.75
1477.416745	675.25
1477.938106	674.25
1478.459411	674.0
1478.980662	672.0
1479.501857	671.25
1480.022998	669.0
1480.544084	673.25
1481.065115	669.0
1481.586091	675.25
1482.107012	670.5
1482.627878	672.5
1483.14869	673.75
1483.669446	669.25
1484.190148	670.75
1484.710794	671.75
1485.231386	670.25
1485.751923	671.75
1486.272406	670.75
1486.792833	671.25
1487.313205	670.5
1487.833523	670.25
1488.353786	674.5
1488.873994	671.25
1489.394147	670.25
1489.914245	671.25
1490.434288	669.75
1490.954277	672.5
1491.474211	673.75
1491.99409	671.75
1492.513914	669.25
1493.033683	673.75
1493.553398	671.25
1494.073057	671.5
1494.592662	672.25
1495.112212	672.75
1495.631708	672.25
1496.151148	672.75
1496.670534	670.5
1497.189865	671.25
1497.709141	670.75
1498.228362	672.75
1498.747529	675.0
1499.266641	671.0
1499.785698	678.25
1500.3047	669.25
1500.823648	672.75
1501.34254	673.25
1501.861379	668.5
1502.380162	670.75
1502.89889	673.75
1503.417564	671.5
1503.936183	668.75
1504.454748	668.75
1504.973257	670.0
1505.491712	672.5
1506.010112	674.0
1506.528458	667.0
1507.046748	671.25
1507.564984	674.25
1508.083166	671.0
1508.601292	670.5
1509.119364	670.5
1509.637381	671.5
1510.155344	671.0
1510.673252	677.5
1511.191105	671.75
1511.708903	668.0
1512.226647	672.25
1512.744336	670.5
1513.261971	672.0
1513.77955	669.75
1514.297076	669.5
1514.814546	672.5
1515.331962	669.5
1515.849323	668.25
1516.366629	672.5
1516.883881	669.75
1517.401078	673.0
1517.918221	672.0
1518.435309	670.0
1518.952342	671.75
1519.469321	669.0
1519.986245	669.25
1520.503114	668.25
1521.019929	671.25
1521.536689	672.25
1522.053395	669.0
1522.570046	669.0
1523.086642	670.0
1523.603184	668.25
1524.119671	673.75
1524.636103	672.25
1525.152481	672.5
1525.668805	670.75
1526.185073	671.0
1526.701288	672.75
1527.217447	669.25
1527.733552	673.0
1528.249603	672.5
1528.765599	671.75
1529.28154	673.0
1529.797427	671.0
1530.313259	671.25
1530.829037	670.5
1531.34476	672.0
1531.860429	668.75
1532.376043	669.0
1532.891602	670.75
1533.407107	669.25
1533.922558	672.25
1534.437954	673.75
1534.953295	666.75
1535.468582	670.25
1535.983815	669.5
1536.498993	668.0
1537.014116	671.5
1537.529185	670.25
1538.044199	675.5
1538.559159	672.0
1539.074064	671.25
1539.588915	672.25
1541.133141	670.25
1541.647774	672.5
1542.162353	670.25
1542.676877	671.0
1543.191346	668.25
1543.705761	671.75
1544.220122	667.25
1544.734428	671.75
1545.24868	668.25
1545.762877	671.0
1546.27702	671.75
1546.791109	667.25
1547.305143	670.75
1547.819122	672.25
1548.333047	674.75
1548.846918	667.5
1549.360734	674.0
1549.874496	671.75
1550.388204	671.75
1550.901857	669.25
1551.415455	671.0
1551.929	671.25
1552.442489	667.0
1552.955925	670.5
1553.469306	668.0
1553.982632	671.75
1554.495905	669.0
1555.009123	669.0
1555.522286	671.75
1556.035395	668.5
1556.54845	669.5
1557.06145	671.25
1557.574396	668.75
1558.087288	673.0
1558.600125	672.25
1559.112908	671.75
1559.625637	667.75
1560.138311	669.0
1560.650931	672.25
1561.163497	670.75
1561.676008	675.0
1562.188465	670.25
1562.700867	669.75
1563.213216	672.25
1563.725509	669.75
1564.237749	670.25
1564.749934	671.75
1565.262065	671.0
1565.774142	669.25
1566.286164	673.0
1566.798132	670.0
1567.310046	668.5
1567.821906	673.25
1568.333711	674.25
1568.845462	668.5
1569.357158	670.75
1569.868801	669.0
1570.380389	672.25
1570.891922	670.25
1571.403402	674.75
1571.914827	667.5
1572.426198	665.75
1572.937515	671.0
1573.448777	673.5
1573.959985	669.75
1574.471139	669.5
1574.982239	669.25
1575.493285	671.25
1576.004276	672.25
1576.515213	667.5
1577.026096	672.0
1577.536924	670.75
1578.047698	670.5
1578.558419	668.75
1579.069084	670.0
1579.579696	671.5
1580.090254	669.25
1580.600757	672.5
1581.111206	672.75
1581.621601	670.0
1582.131941	669.25
1582.642228	671.25
1583.15246	668.25
1583.662638	672.25
1584.172762	669.25
1584.682832	671.5
1585.192847	669.0
1585.702809	669.5
1586.212716	670.75
1586.722569	671.5
1587.232368	671.0
1587.742113	671.0
1588.251803	671.25
1588.76144	671.75
1589.271022	673.25
1589.78055	671.5
1590.290024	667.75
1590.799444	669.75
1591.30881	671.5
1591.818121	671.0
1592.327379	670.5
