1042.980685	811.75
1043.547124	811.5
1044.113505	807.25
1044.679828	810.0
1045.246093	810.0
1045.8123	809.0
1046.378449	803.5
1046.94454	810.0
1047.510573	803.25
1048.076548	802.5
1048.642465	806.5
1049.208325	795.5
1049.774126	801.5
1050.339869	797.0
1050.905555	804.0
1051.471183	797.75
1052.036752	799.75
1052.602264	798.25
1053.167718	799.0
1053.733114	797.0
1054.298452	790.0
1054.863733	793.75
1055.428955	782.25
1055.994119	795.25
1056.559226	787.0
1057.124275	786.0
1057.689266	786.0
1058.254199	784.25
1058.819074	791.5
1059.383891	779.5
1059.94865	774.75
1060.513352	782.5
1061.077996	787.25
1061.642582	778.5
1062.20711	784.25
1062.77158	781.75
1063.335992	785.75
1063.900347	779.5
1064.464643	783.25
1065.028882	777.5
1065.593063	773.75
1066.157187	774.75
1066.721252	772.0
1067.28526	772.5
1067.84921	781.0
1068.413102	778.5
1068.976936	771.0
1069.540713	774.5
1070.104431	786.5
1070.668092	775.0
1071.231696	779.0
1071.795241	778.5
1072.358729	772.5
1072.922159	776.75
1073.485531	774.0
1074.048845	770.5
1074.612102	774.5
1075.175301	773.25
1075.738442	773.0
1076.301525	767.5
1076.864551	769.75
1077.427519	767.75
1077.990429	770.0
1078.553281	778.25
1079.116076	772.75
1079.678813	769.25
1080.241492	776.25
1080.804114	768.5
1081.366678	766.25
1081.929184	771.25
1082.491633	773.25
1083.054024	768.75
1083.616357	767.0
1084.178632	761.25
1084.74085	766.25
1085.30301	769.5
1085.865113	762.5
1086.427158	768.5
1086.989145	766.25
1087.551074	767.25
1088.112946	763.25
1088.67476	765.0
1089.236517	765.75
1089.798216	776.75
1090.359857	765.25
1090.92144	763.0
1091.482966	760.0
1092.044435	762.75
1092.605845	754.5
1093.167199	763.75
1093.728494	764.0
1094.289732	760.25
1094.850912	758.75
1095.412035	760.5
1095.9731	764.0
1096.534107	769.0
1097.095057	771.75
1097.65595	762.75
1098.216784	762.75
1098.777561	768.75
1099.338281	760.25
1099.898943	759.75
1100.459547	764.25
1101.020094	762.25
1101.580584	756.5
1102.141015	754.75
1102.701389	758.25
1103.261706	760.0
1103.821965	765.0
1104.382167	762.0
1104.942311	767.75
1105.502397	762.25
1106.062426	758.5
1106.622398	759.75
1107.182312	762.0
1107.742168	761.25
1108.301967	754.25
1108.861708	761.75
1109.421392	758.5
1109.981019	758.25
1110.540587	754.0
1111.100099	761.5
1111.659553	760.5
1112.218949	758.5
1112.778288	756.25
1113.33757	761.75
1113.896794	754.0
1114.45596	765.75
1115.015069	762.25
1115.574121	752.25
1116.133115	755.0
1116.692052	753.25
1117.250931	763.25
1117.809753	759.0
1118.368517	756.25
1118.927224	761.25
1119.485873	761.0
1120.044465	758.5
1120.603	754.75
1121.161477	755.25
1121.719897	757.0
1122.278259	758.25
1122.836564	758.5
1123.394812	753.75
1123.953002	755.5
1124.511135	754.25
1125.06921	756.25
1125.627228	755.0
1126.185189	752.25
1126.743092	750.5
1127.300938	752.25
1127.858726	759.75
1128.416457	756.5
1128.974131	753.75
1129.531748	746.5
1130.089307	753.5
1130.646808	754.25
1131.204252	754.0
1131.761639	755.0
1132.318969	752.5
1132.876241	755.25
1133.433456	755.5
1133.990614	753.5
1134.547714	753.25
1135.104757	750.0
1135.661743	757.0
1136.218671	752.5
1136.775542	757.25
1137.332356	750.0
1137.889112	753.25
1138.445811	746.75
1139.002453	755.75
1139.559037	752.5
1140.115565	755.5
1140.672035	749.75
1141.228447	751.0
1141.784803	755.5
1142.341101	752.75
1142.897342	752.5
1143.453525	756.25
1144.009651	753.0
1144.565721	747.75
1145.121732	751.25
1145.677687	749.0
1146.233584	748.75
1146.789424	749.0
1147.345207	755.25
1147.900933	756.75
1148.456601	749.5
1149.012212	750.25
1149.567766	747.5
1150.123263	752.25
1150.678702	750.5
1151.234085	749.5
1151.78941	756.25
1152.344678	747.75
1152.899888	747.25
1153.455042	751.0
1154.010138	749.5
1154.565177	749.25
1155.120159	745.5
1155.675084	753.25
1156.229951	747.75
1156.784762	749.5
1157.339515	752.25
1157.894211	750.5
1158.44885	751.75
1159.003432	752.5
1159.557956	751.0
1160.112424	741.75
1160.666834	749.25
1161.221187	747.75
1161.775483	750.25
1162.329722	747.75
1162.883904	752.75
1163.438029	749.5
1163.992096	750.5
1164.546107	752.0
1165.10006	745.75
1165.653956	748.75
1166.207795	743.5
1166.761577	754.75
1167.315302	754.0
1167.86897	747.25
1168.422581	748.0
1168.976134	743.0
1169.529631	750.0
1170.08307	744.75
1170.636453	752.75
1171.189778	748.25
1171.743046	753.25
1172.296257	743.25
1172.849412	748.25
1173.402509	749.0
1173.955549	748.75
1174.508532	745.25
1175.061458	741.5
1175.614327	748.5
1176.167138	758.25
1176.719893	753.0
1177.272591	750.75
1177.825232	752.75
1178.377816	742.25
1178.930342	745.75
1179.482812	745.5
1180.035225	749.0
1180.587581	744.5
1181.139879	750.25
1181.692121	746.75
1182.244306	751.75
1182.796434	751.0
1183.348504	743.25
1183.900518	749.0
1184.452475	748.75
1185.004375	749.5
1185.556218	750.5
1186.108004	747.5
1186.659733	750.25
1187.211405	752.25
1187.76302	746.75
1188.314578	746.25
1188.866079	749.5
1189.417523	750.0
1189.96891	750.25
1190.520241	744.75
1191.071514	752.0
1191.622731	748.0
1192.17389	750.75
1192.724993	748.5
1193.276039	768.75
1193.827027	753.25
1194.377959	748.25
1194.928834	746.75
1195.479653	750.75
1196.030414	753.0
1196.581118	751.0
1197.131766	757.75
1197.682356	750.25
1198.23289	749.5
1198.783367	749.0
1199.333786	749.0
1199.88415	750.25
1200.434456	746.0
1200.984705	751.5
1201.534898	748.75
1202.085033	754.25
1202.635112	749.0
1203.185134	751.25
1203.735099	749.5
1204.285007	748.75
1204.834859	750.5
1205.384653	756.0
1205.934391	751.5
1206.484072	751.75
1207.033696	756.75
1207.583263	751.0
1208.132774	750.75
1208.682228	752.5
1209.231624	745.25
1209.780965	751.25
1210.330248	751.5
1210.879474	750.75
1211.428644	752.25
1211.977757	749.25
1212.526813	753.0
1213.075813	754.25
1213.624755	742.0
1214.173641	754.75
1214.72247	752.5
1215.271242	752.5
1215.819958	750.25
1216.368617	752.5
1216.917219	751.5
1217.465764	744.75
1218.014253	758.25
1218.562685	746.5
1219.11106	746.5
1219.659378	745.5
1220.20764	747.5
1220.755845	750.5
1221.303993	750.0
1221.852085	752.25
1222.400119	757.25
1222.948097	747.75
1223.496019	753.75
1224.043883	752.5
1224.591691	754.0
1225.139443	749.25
1225.687137	752.25
1226.234775	749.0
1226.782357	750.25
1227.329881	750.25
1227.877349	756.5
1228.42476	754.25
1228.972115	755.25
1229.519413	753.0
1230.066654	752.75
1230.613839	753.0
1231.160967	749.75
1231.708038	754.0
1232.255053	759.5
1232.802011	754.5
1233.348912	754.25
1233.895757	755.0
1234.442545	756.25
1234.989277	755.75
1235.535951	762.25
1236.08257	759.5
1236.629131	754.75
1237.175636	756.5
1237.722085	752.5
1238.268477	757.25
1238.814812	759.0
1239.361091	755.25
1239.907313	759.5
1240.453478	754.5
1240.999587	760.75
1241.54564	756.5
1242.091636	765.5
1242.637575	756.25
1243.183457	759.5
1243.729284	760.5
1244.275053	759.5
1244.820766	763.25
1245.366423	760.75
1245.912022	762.25
1246.457566	763.0
1247.003053	764.5
1247.548483	763.5
1248.093857	765.0
1248.639174	757.5
1249.184435	760.25
1249.729639	757.75
1250.274787	764.5
1250.819878	763.25
1251.364912	765.5
1251.909891	772.0
1252.454812	765.5
1252.999677	767.5
1253.544486	764.5
1254.089238	768.5
1254.633934	777.75
1255.178573	772.25
1255.723156	784.5
1256.267682	792.5
1256.812152	798.75
1257.356565	794.75
1257.900922	796.5
1258.445223	794.0
1258.989467	801.75
1259.533654	810.25
1260.077785	841.25
1260.62186	833.0
1261.165878	837.25
1261.70984	832.25
1262.253745	819.75
1262.797594	818.75
1263.341386	808.0
1263.885123	804.5
1264.428802	795.5
1264.972425	793.75
1265.515992	799.5
1266.059503	788.25
1266.602957	789.75
1267.146354	790.5
1267.689696	791.75
1268.23298	790.0
1268.776209	793.25
1269.319381	796.0
1269.862497	787.0
1270.405556	793.25
1270.948559	786.0
1271.491506	791.5
1272.034396	798.75
1272.57723	798.25
1273.120007	794.0
1273.662728	802.5
1274.205393	800.0
1274.748002	800.75
1275.290554	813.25
1275.83305	814.75
1276.375489	831.0
1276.917872	840.75
1277.460199	861.0
1278.00247	882.5
1278.544684	937.75
1279.086842	1031.0
1279.628943	1223.5
1280.170989	1657.75
1280.712978	2300.0
1281.25491	2548.0
1281.796787	1982.5
1282.338607	1422.0
1282.880371	1128.25
1283.422078	994.25
1283.963729	916.25
1284.505324	884.75
1285.046863	858.25
1285.588345	844.25
1286.129772	829.75
1286.671142	822.5
1287.212455	818.75
1287.753713	811.75
1288.294914	801.75
1288.836059	799.75
1289.377147	795.75
1289.91818	794.25
1290.459156	792.0
1291.000076	789.75
1291.54094	779.0
1292.081747	783.75
1292.622499	791.25
1293.163194	788.75
1293.703833	785.0
1294.244415	784.75
1294.784942	783.0
1295.325412	776.75
1295.865826	779.25
1296.406184	774.75
1296.946486	779.25
1297.486731	778.25
1298.026921	772.5
1298.567054	775.0
1299.107131	769.75
1299.647152	775.75
1300.187116	774.5
1300.727025	771.5
1301.266877	772.25
1301.806673	770.0
1302.346413	773.25
1302.886097	770.5
1303.425725	769.25
1303.965297	768.0
1304.504812	764.5
1305.044272	769.5
1305.583675	768.25
1306.123022	774.5
1306.662313	769.75
1307.201548	767.25
1307.740727	773.75
1308.279849	767.0
1308.818916	772.25
1309.357926	765.25
1309.896881	775.25
1310.435779	773.0
1310.974621	774.0
1311.513407	765.25
1312.052137	775.25
1312.590811	764.25
1313.129429	773.0
1313.667991	768.25
1314.206497	769.5
1314.744946	773.25
1315.28334	765.0
1315.821678	768.25
1316.359959	765.75
1316.898184	768.75
1317.436354	777.0
1317.974467	764.75
1318.512525	763.25
1319.050526	769.75
1319.588471	769.5
1320.12636	768.5
1320.664194	766.5
1321.201971	767.25
1321.739692	774.25
1322.277357	767.0
1322.814967	770.0
1323.35252	771.0
1323.890017	776.5
1324.427458	769.5
1324.964843	774.5
1325.502173	772.75
1326.039446	779.0
1326.576663	782.25
1327.113824	773.75
1327.65093	769.25
1328.187979	773.75
1328.724972	771.75
1329.26191	780.5
1329.798791	770.75
1330.335617	776.0
1330.872386	776.5
1331.4091	766.5
1331.945758	774.0
1332.48236	773.0
1333.018905	771.0
1333.555395	772.5
1334.091829	772.5
1334.628207	778.25
1335.164529	774.25
1335.700796	779.5
1336.237006	769.25
1336.77316	770.25
1337.309259	774.25
1337.845301	777.5
1338.381288	776.0
1338.917219	779.25
1339.453094	775.0
1339.988913	775.5
1340.524676	769.0
1341.060383	776.75
1341.596034	777.25
1342.13163	770.75
1342.66717	767.75
1343.202653	772.25
1343.738081	770.0
1344.273453	776.25
1344.80877	769.25
1345.34403	768.75
1345.879235	770.0
1346.414383	770.0
1346.949476	771.75
1347.484513	774.5
1348.019494	768.25
1348.55442	773.5
1349.089289	770.75
1349.624103	772.5
1350.158861	766.75
1350.693563	776.0
1351.228209	775.25
1351.7628	773.5
1352.297334	774.75
1352.831813	775.25
1353.366236	768.75
1353.900604	773.0
1354.434915	769.75
1354.969171	773.25
1355.503371	776.25
1356.037515	774.5
1356.571604	774.5
1357.105636	783.0
1357.639613	771.25
1358.173535	779.0
1358.7074	774.5
1359.24121	774.5
1359.774964	782.0
1360.308662	775.25
1360.842304	774.5
1361.375891	774.75
1361.909422	781.5
1362.442897	778.75
1362.976317	791.0
1363.50968	788.25
1364.042989	787.5
1364.576241	784.5
1365.109438	777.25
1365.642579	784.0
1366.175664	780.75
1366.708693	782.25
1367.241667	796.75
1367.774585	789.25
1368.307448	807.0
1368.840255	831.75
1369.373006	849.0
1369.905701	820.0
1370.438341	808.25
1370.970925	800.75
1371.503454	794.0
1372.035926	798.25
1372.568344	797.5
1373.100705	799.25
1373.633011	800.5
1374.165261	810.75
1374.697456	800.5
1375.229595	806.0
1375.761678	801.0
1376.293705	813.75
1376.825677	809.5
1377.357594	810.5
1377.889455	813.0
1378.42126	820.75
1378.953009	825.25
1379.484703	835.75
1380.016342	840.25
1380.547924	846.25
1381.079452	871.0
1381.610923	883.75
1382.142339	903.25
1382.673699	924.5
1383.205004	983.5
1383.736253	1063.5
1384.267447	1193.5
1384.798585	1448.25
1385.329668	1984.75
1385.860695	3011.75
1386.391666	4144.75
1386.922582	3725.0
1387.453442	2416.75
1387.984247	1653.0
1388.514996	1278.75
1389.04569	1116.0
1389.576328	999.75
1390.10691	956.25
1390.637437	908.5
1391.167909	890.5
1391.698325	873.75
1392.228685	856.5
1392.75899	853.25
1393.28924	839.75
1393.819434	836.75
1394.349572	824.25
1394.879655	821.0
1395.409683	814.25
1395.939655	813.75
1396.469571	812.75
1396.999432	824.5
1397.529237	811.25
1398.058987	807.5
1398.588682	812.0
1399.118321	813.75
1399.647905	804.0
1400.177433	812.0
1400.706906	815.75
1401.236323	817.0
1401.765685	819.25
1402.294991	823.0
1402.824242	820.75
1403.353437	827.0
1403.882577	830.25
1404.411662	833.75
1404.940691	855.0
1405.469665	852.5
1405.998583	865.75
1406.527446	862.25
1407.056253	875.5
1407.585005	876.5
1408.113702	887.5
1408.642343	880.25
1409.170929	884.25
1409.69946	864.0
1410.227935	850.5
1410.756354	829.0
1411.284719	825.5
1411.813028	812.75
1412.341281	798.25
1412.869479	798.25
1413.397622	794.75
1413.92571	789.75
1414.453742	787.25
1414.981718	789.25
1415.50964	793.25
1416.037506	780.75
1416.565316	782.25
1417.093072	776.75
1417.620772	777.5
1418.148416	774.5
1418.676005	778.0
1419.203539	772.25
1419.731018	767.25
1420.258441	776.5
1420.785809	772.75
1421.313122	769.75
1421.840379	771.25
1422.367582	769.0
1422.894728	770.0
1423.42182	769.0
1423.948856	764.75
1424.475837	765.0
1425.002762	770.25
1425.529633	771.75
1426.056448	770.75
1426.583207	765.75
1427.109912	772.25
1427.636561	768.0
1428.163155	763.0
1428.689694	763.25
1429.216177	760.25
1429.742605	765.0
1430.268978	765.25
1430.795296	759.25
1431.321558	761.25
1431.847765	763.5
1432.373917	764.0
1432.900014	762.0
1433.426056	768.0
1433.952042	764.75
1434.477973	757.25
1435.003849	757.75
1435.529669	768.0
1436.055435	758.75
1436.581145	761.75
1437.1068	763.0
1437.632399	757.5
1438.157944	758.5
1438.683433	769.5
1439.208868	764.5
1439.734247	759.5
1440.25957	762.5
1440.784839	764.0
1441.310053	757.75
1441.835211	758.5
1442.360314	761.75
1442.885362	762.0
1443.410355	758.0
1443.935292	752.0
1444.460175	765.0
1444.985002	762.0
1445.509774	761.75
1446.034491	753.5
1446.559153	764.25
1447.08376	763.25
1447.608312	763.5
1448.132808	754.75
1448.65725	760.5
1449.181636	759.75
1449.705967	758.75
1450.230243	759.75
1450.754464	765.0
1451.27863	760.0
1451.802741	763.25
1452.326797	764.25
1452.850797	759.5
1453.374743	760.25
1453.898633	757.25
1454.422468	753.5
1454.946249	766.5
1455.469974	753.5
1455.993644	758.0
1456.517259	762.0
1457.040819	755.75
1457.564324	764.0
1458.087773	755.75
1458.611168	756.75
1459.134508	762.5
1459.657793	760.75
1460.181022	757.25
1460.704197	759.25
1461.227316	754.25
1461.750381	759.25
1462.27339	755.25
1462.796345	765.25
1463.319244	764.0
1463.842089	753.5
1464.364878	761.0
1464.887613	758.75
1465.410292	760.0
1465.932916	752.0
1466.455486	758.5
1466.978	761.0
1467.50046	762.25
1468.022864	760.0
1468.545214	761.75
1469.067508	762.5
1469.589748	759.5
1470.111932	758.5
1470.634062	756.75
1471.156136	756.25
1471.678156	758.75
1472.20012	755.5
1472.72203	757.25
1473.243885	757.0
1473.765685	758.0
1474.28743	753.25
1474.80912	757.75
1475.330755	758.25
1475.852335	754.75
1476.37386	753.0
1476.89533	755.0
1477.416745	758.25
1477.938106	764.5
1478.459411	750.75
1478.980662	753.25
1479.501857	754.25
1480.022998	756.5
1480.544084	753.75
1481.065115	752.75
1481.586091	760.5
1482.107012	758.5
1482.627878	756.0
1483.14869	750.0
1483.669446	755.75
1484.190148	758.25
1484.710794	759.0
1485.231386	757.5
1485.751923	758.25
1486.272406	761.25
1486.792833	756.75
1487.313205	755.5
1487.833523	758.25
1488.353786	755.0
1488.873994	754.75
1489.394147	753.25
1489.914245	751.25
1490.434288	763.25
1490.954277	749.0
1491.474211	755.75
1491.99409	760.75
1492.513914	755.25
1493.033683	758.0
1493.553398	750.75
1494.073057	761.75
1494.592662	760.5
1495.112212	755.5
1495.631708	755.5
1496.151148	757.25
1496.670534	754.0
1497.189865	762.25
1497.709141	758.5
1498.228362	760.75
1498.747529	759.5
1499.266641	759.0
1499.785698	762.0
1500.3047	755.0
1500.823648	759.25
1501.34254	758.75
1501.861379	753.75
1502.380162	751.75
1502.89889	755.75
1503.417564	760.0
1503.936183	758.25
1504.454748	752.0
1504.973257	755.5
1505.491712	756.75
1506.010112	751.25
1506.528458	753.25
1507.046748	756.25
1507.564984	756.0
1508.083166	755.75
1508.601292	747.5
1509.119364	761.75
1509.637381	752.0
1510.155344	758.5
1510.673252	765.75
1511.191105	755.75
1511.708903	757.25
1512.226647	761.25
1512.744336	756.0
1513.261971	761.0
1513.77955	755.25
1514.297076	758.75
1514.814546	754.75
1515.331962	759.25
1515.849323	752.75
1516.366629	753.25
1516.883881	754.5
1517.401078	753.0
1517.918221	753.0
1518.435309	757.75
1518.952342	759.5
1519.469321	752.5
1519.986245	758.0
1520.503114	756.25
1521.019929	753.5
1521.536689	761.5
1522.053395	748.25
1522.570046	759.5
1523.086642	761.0
1523.603184	756.25
1524.119671	750.5
1524.636103	756.0
1525.152481	751.0
1525.668805	759.25
1526.185073	756.0
1526.701288	753.25
1527.217447	758.25
1527.733552	757.25
1528.249603	752.75
1528.765599	750.75
1529.28154	761.5
1529.797427	756.0
1530.313259	758.5
1530.829037	751.25
1531.34476	757.5
1531.860429	755.0
1532.376043	755.0
1532.891602	759.5
1533.407107	749.25
1533.922558	755.5
1534.437954	756.75
1534.953295	756.75
1535.468582	754.75
1535.983815	751.25
1536.498993	748.0
1537.014116	757.75
1537.529185	754.75
1538.044199	756.25
1538.559159	752.0
1539.074064	754.75
1539.588915	758.5
1540.103712	754.75
1540.618454	756.0
1541.133141	759.25
1541.647774	754.75
1542.162353	764.75
1542.676877	757.75
1543.191346	758.0
1543.705761	759.75
1544.220122	759.5
1544.734428	754.75
1545.24868	757.75
1545.762877	754.25
1546.27702	757.75
1546.791109	750.75
1547.305143	759.0
1547.819122	754.5
1548.333047	757.5
1548.846918	759.75
1549.360734	760.0
1549.874496	758.75
1550.388204	753.25
1550.901857	763.0
1551.415455	756.75
1551.929	754.25
1552.442489	759.25
1552.955925	757.5
1553.469306	757.25
1553.982632	759.25
1554.495905	763.25
1555.009123	760.75
1555.522286	758.25
1556.035395	759.5
1556.54845	757.5
1557.06145	755.25
1557.574396	759.5
1558.087288	754.5
1558.600125	753.75
1559.112908	759.0
1559.625637	758.0
1560.138311	756.5
1560.650931	748.75
1561.163497	756.25
1561.676008	753.5
1562.188465	754.5
1562.700867	753.25
1563.213216	762.75
1563.725509	753.75
1564.237749	766.5
1564.749934	758.75
1565.262065	756.25
1565.774142	759.5
1566.286164	753.5
1566.798132	761.75
1567.310046	759.75
1567.821906	763.0
1568.333711	761.0
1568.845462	758.0
1569.357158	760.0
1569.868801	760.0
1570.380389	756.75
1570.891922	757.75
1571.403402	762.0
1571.914827	757.0
1572.426198	758.0
1572.937515	759.75
1573.448777	759.75
1573.959985	758.0
1574.471139	760.75
1574.982239	753.0
1575.493285	759.5
1576.004276	762.0
1576.515213	762.5
1577.026096	761.5
1577.536924	758.5
1578.047698	759.25
1578.558419	761.5
1579.069084	757.5
1579.579696	756.0
1580.090254	763.0
1580.600757	753.0
1581.111206	758.0
1581.621601	756.25
1582.131941	758.25
1582.642228	759.25
1583.15246	750.0
1583.662638	756.0
1584.172762	763.25
1584.682832	754.5
1585.192847	760.25
1585.702809	751.75
1586.212716	761.0
1586.722569	759.0
1587.232368	763.25
1587.742113	755.0
1588.251803	761.5
1588.76144	759.5
1589.271022	755.75
1589.78055	755.0
1590.290024	754.5
1590.799444	756.0
1591.30881	752.0
1591.818121	761.25
1592.327379	755.5
