-1199.477246	680.25
-1193.820308	677.75
-1188.166625	680.0
-1182.516195	673.25
-1176.869015	675.5
-1171.225082	672.0
-1165.584394	676.75
-1159.946947	674.0
-1154.31274	673.75
-1148.681769	665.5
-1143.054031	666.75
-1137.429524	669.25
-1131.808245	669.0
-1126.190192	669.0
-1120.57536	666.75
-1114.963749	666.25
-1109.355355	667.0
-1103.750175	668.0
-1098.148206	668.5
-1092.549446	667.25
-1086.953893	663.75
-1081.361543	666.5
-1075.772393	661.0
-1070.186442	666.25
-1064.603685	662.25
-1059.024122	663.25
-1053.447748	665.75
-1047.874562	664.75
-1042.30456	659.25
-1036.737739	661.25
-1031.174098	661.75
-1025.613633	663.25
-1020.056343	660.5
-1014.502223	661.75
-1008.951271	663.75
-1003.403486	661.25
-997.858863	662.5
-992.3174008	662.5
-986.7790964	662.75
-981.2439472	662.25
-975.7119503	659.0
-970.1831033	662.75
-964.6574035	664.25
-959.1348482	662.25
-953.6154348	661.25
-948.0991606	664.5
-942.5860231	662.25
-937.0760196	663.25
-931.5691475	660.0
-926.0654041	668.75
-920.5647868	658.5
-915.0672931	663.0
-909.5729203	661.5
-904.0816659	662.25
-898.5935271	661.5
-893.1085014	660.0
-887.6265863	661.25
-882.147779	658.25
-876.6720771	661.25
-871.1994779	665.25
-865.7299788	662.5
-860.2635773	661.0
-854.8002708	662.0
-849.3400567	660.75
-843.8829325	661.5
-838.4288955	661.25
-832.9779432	664.0
-827.5300731	657.25
-822.0852825	662.25
-816.643569	660.25
-811.2049299	661.5
-805.7693628	662.25
-800.336865	662.0
-794.907434	660.5
-789.4810674	661.75
-784.0577624	660.75
-778.6375167	659.0
-773.2203277	659.5
-767.8061928	659.75
-762.3951095	660.75
-756.9870753	662.0
-751.5820877	658.75
-746.1801442	658.75
-740.7812421	663.0
-735.3853792	659.75
-729.9925527	660.5
-724.6027603	661.25
-719.2159994	663.5
-713.8322675	658.75
-708.4515621	662.25
-703.0738807	659.75
-697.6992209	661.25
-692.3275801	659.25
-686.9589558	658.5
-681.5933456	662.0
-676.2307471	658.75
-670.8711576	660.75
-665.5145748	665.75
-660.1609961	658.5
-654.8104192	660.5
-649.4628415	662.0
-644.1182605	660.0
-638.7766739	658.0
-633.4380791	658.5
-628.1024737	661.0
-622.7698553	659.0
-617.4402213	662.5
-612.1135695	659.25
-606.7898972	659.25
-601.4692021	661.25
-596.1514817	660.0
-590.8367336	661.25
-585.5249553	662.0
-580.2161445	660.25
-574.9102987	659.75
-569.6074155	660.5
-564.3074924	658.75
-559.0105271	659.0
-553.7165171	660.25
-548.42546	661.0
-543.1373533	659.75
-537.8521948	659.25
-532.5699819	660.0
-527.2907124	657.5
-522.0143836	658.25
-516.7409934	659.25
-511.4705392	658.5
-506.2030188	660.5
-500.9384296	659.75
-495.6767693	659.25
-490.4180356	659.5
-485.162226	661.25
-479.9093381	659.0
-474.6593696	658.25
-469.4123182	660.75
-464.1681813	657.5
-458.9269567	659.25
-453.6886421	656.0
-448.4532349	659.5
-443.2207329	658.75
-437.9911337	660.25
-432.764435	660.25
-427.5406344	658.5
-422.3197295	658.5
-417.101718	661.5
-411.8865975	661.5
-406.6743658	658.25
-401.4650204	660.75
-396.258559	659.5
-391.0549793	659.5
-385.8542789	657.75
-380.6564555	661.0
-375.4615068	661.25
-370.2694305	659.75
-365.0802242	660.0
-359.8938856	658.0
-354.7104123	659.5
-349.5298022	659.5
-344.3520527	659.5
-339.1771617	660.25
-334.0051269	659.75
-328.8359458	660.25
-323.6696162	659.25
-318.5061359	660.75
-313.3455024	658.75
-308.1877135	660.25
-303.032767	659.25
-297.8806604	659.5
-292.7313915	659.5
-287.5849581	659.5
-282.4413578	660.75
-277.3005883	662.25
-272.1626474	655.5
-267.0275328	658.0
-261.8952422	660.5
-256.7657734	658.75
-251.6391239	661.25
-246.5152917	659.75
-241.3942744	659.25
-236.2760697	655.5
-231.1606754	660.5
-226.0480892	661.5
-220.9383088	658.75
-215.8313321	657.25
-210.7271566	660.0
-205.6257803	660.5
-200.5272008	660.25
-195.4314159	660.5
-190.3384233	660.5
-185.2482208	658.0
-180.1608062	659.25
-175.0761772	656.25
-169.9943315	657.5
-164.915267	658.0
-159.8389813	660.5
-154.7654723	658.5
-149.6947378	660.75
-144.6267754	658.25
-139.5615831	661.25
-134.4991585	662.5
-129.4394994	657.75
-124.3826036	663.0
-119.328469	660.5
-114.2770932	659.25
-109.2284741	659.0
-104.1826095	659.25
-99.13949706	659.5
-94.09913471	661.0
-89.06152019	659.25
-84.02665132	661.75
-78.99452587	660.0
-73.96514167	659.5
-68.93849651	660.25
-63.91458819	663.5
-58.89341453	662.75
-53.87497334	661.0
-48.85926242	663.75
-43.8462796	666.0
-38.83602269	669.0
-33.8284895	671.0
-28.82367786	669.5
-23.82158558	673.0
-18.82221051	690.0
-13.82555045	740.75
-8.831603238	2433.5
6.133982984	3010.5
11.11710047	766.5
16.09751594	701.5
21.07523155	682.25
26.05024945	690.0
31.02257181	682.5
35.99220076	669.75
40.95913848	667.5
45.9233871	668.75
50.88494877	665.75
55.84382564	665.5
60.80001985	674.75
65.75353355	690.25
70.70436887	695.75
75.65252795	697.25
80.59801293	693.75
85.54082594	687.25
90.48096911	686.75
95.41844457	683.0
100.3532545	680.0
105.2854009	677.25
110.214886	677.75
115.1417119	674.0
120.0658807	671.5
124.9873945	672.75
129.9062555	668.5
134.8224658	673.75
139.7360274	670.25
144.6469425	671.75
149.5552132	669.75
154.4608416	668.25
159.3638298	668.25
164.2641799	669.75
169.161894	669.75
174.0569743	669.0
178.9494227	671.0
183.8392415	668.25
188.7264326	671.0
193.6109983	669.25
198.4929405	669.0
203.3722614	671.25
208.248963	670.5
213.1230475	672.5
217.9945169	688.75
222.8633733	669.75
227.7296187	668.5
232.5932554	672.25
237.4542852	670.5
242.3127104	669.25
247.168533	670.25
252.021755	671.75
256.8723785	669.0
261.7204056	670.25
266.5658383	669.25
271.4086788	668.0
276.248929	671.25
281.086591	672.75
285.921667	670.5
290.7541588	671.0
295.5840687	671.5
300.4113986	672.0
305.2361506	670.25
310.0583267	673.25
314.8779291	675.0
319.6949596	673.5
324.5094205	675.0
329.3213137	671.5
334.1306412	673.0
338.9374051	671.75
343.7416074	671.0
348.5432503	667.5
353.3423356	673.0
358.1388654	671.75
362.9328418	673.25
367.7242668	669.25
372.5131423	669.25
377.2994705	673.75
382.0832534	674.0
386.8644929	671.5
391.6431911	672.75
396.4193501	671.5
401.1929717	669.75
405.9640581	670.75
410.7326112	669.5
415.4986331	672.0
420.2621258	674.25
425.0230912	672.25
429.7815314	671.0
434.5374483	670.75
439.2908441	673.5
444.0417206	667.5
448.7900799	670.25
453.5359239	672.5
458.2792547	671.0
463.0200743	674.5
467.7583846	672.5
472.4941877	671.75
477.2274854	672.75
481.9582799	672.75
486.6865731	675.25
491.4123669	674.5
496.1356634	673.0
500.8564646	673.75
505.5747723	677.0
510.2905886	673.75
515.0039155	676.5
519.7147549	674.75
524.4231088	670.75
529.1289792	671.75
533.832368	676.75
538.5332772	678.5
543.2317088	674.25
547.9276647	673.25
552.6211469	675.75
557.3121574	674.25
562.000698	672.75
566.6867708	675.0
571.3703777	672.25
576.0515207	676.25
580.7302017	672.0
585.4064227	673.25
590.0801856	674.0
594.7514923	673.25
599.4203448	669.5
604.0867451	673.0
608.7506951	670.75
613.4121966	673.25
618.0712518	673.5
622.7278624	671.0
627.3820305	670.25
632.0337579	671.25
636.6830466	669.5
641.3298986	672.0
645.9743157	676.5
650.6162998	674.0
655.255853	675.25
659.8929771	679.5
664.527674	683.25
669.1599457	687.75
673.789794	682.0
678.417221	678.5
683.0422285	677.0
687.6648184	675.5
692.2849926	671.75
696.9027531	673.0
701.5181017	674.5
706.1310404	674.5
710.7415711	675.5
715.3496956	672.0
719.9554159	674.75
724.5587338	678.5
729.1596513	676.75
733.7581703	676.75
738.3542927	676.25
742.9480203	674.75
747.539355	677.0
752.1282988	672.75
756.7148535	674.25
761.299021	676.75
765.8808033	674.0
770.4602021	679.75
775.0372193	674.75
779.611857	676.0
784.1841168	674.25
788.7540007	676.75
793.3215107	693.5
797.8866484	676.0
802.4494159	673.5
807.009815	671.75
811.5678476	675.0
816.1235155	671.75
820.6768206	675.25
825.2277648	673.0
829.7763499	674.5
834.3225778	673.5
838.8664504	676.0
843.4079695	673.25
847.9471369	673.75
852.4839546	672.5
857.0184244	674.5
861.550548	676.75
866.0803275	670.25
870.6077646	674.5
875.1328612	676.5
879.6556192	674.25
884.1760403	675.25
888.6941264	675.75
893.2098794	675.25
897.723301	677.75
902.2343933	678.0
906.7431578	674.5
911.2495967	679.5
915.7537115	674.25
920.2555042	677.75
924.7549767	678.75
929.2521306	677.75
933.746968	677.5
938.2394905	677.5
942.7297	675.0
947.2175984	674.5
951.7031874	678.0
956.186469	679.5
960.6674448	679.75
965.1461167	680.25
969.6224866	683.0
974.0965562	680.75
978.5683274	682.25
983.0378019	681.5
987.5049816	680.0
991.9698683	687.5
996.4324638	684.0
1000.89277	686.5
1005.350788	683.75
1009.806521	686.0
1014.25997	679.0
1018.711136	679.75
1023.160022	679.5
1027.60663	674.5
1032.05096	677.0
1036.493016	675.0
1040.932799	678.25
1045.370309	675.5
1049.805551	674.5
1054.238524	678.75
1058.669232	676.75
1063.097675	677.75
1067.523855	673.5
1071.947775	675.5
1076.369436	677.5
1080.788839	671.75
1085.205988	676.75
1089.620882	675.25
1094.033525	675.25
1098.443918	680.5
1102.852062	673.75
1107.25796	674.0
1111.661613	674.75
1116.063023	673.25
1120.462191	675.75
1124.85912	678.0
1129.253812	676.0
1133.646267	672.0
1138.036489	672.0
1142.424477	667.75
1146.810235	676.0
1151.193764	675.25
1155.575066	673.25
1159.954143	673.25
1164.330995	675.75
1168.705626	677.25
1173.078037	679.0
1177.448229	676.75
1181.816204	675.75
1186.181964	677.25
1190.545511	677.0
1194.906847	679.5
1199.265972	678.5
1203.62289	674.75
1207.977601	681.75
1212.330108	676.0
1216.680412	677.25
1221.028515	678.25
1225.374418	675.0
1229.718124	679.5
1234.059633	677.25
1238.398949	677.25
1242.736072	675.75
1247.071004	674.5
1251.403747	680.0
1255.734303	677.0
1260.062673	675.0
1264.388859	678.0
1268.712863	675.5
1273.034686	678.25
1277.354331	684.5
1281.671798	687.0
1285.98709	680.25
1290.300209	678.25
1294.611155	674.5
1298.919931	672.75
1303.226539	675.0
1307.530979	672.25
1311.833255	680.5
1316.133366	683.5
1320.431316	677.75
1324.727106	674.25
1329.020738	682.25
1333.312213	677.25
1337.601532	679.75
1341.888699	680.25
1346.173713	678.25
1350.456578	679.75
1354.737294	677.0
1359.015864	681.0
1363.292289	681.25
1367.56657	679.75
1371.83871	681.75
1376.10871	682.75
1380.376571	699.25
1384.642296	746.75
1388.905886	720.0
1393.167343	688.0
1397.426668	683.0
1401.683863	682.75
1405.93893	683.0
1410.19187	687.25
1414.442686	680.75
1418.691378	684.0
1422.937948	681.25
1427.182398	681.5
1431.42473	682.75
1435.664946	676.75
1439.903046	677.5
1444.139033	678.5
1448.372908	678.5
1452.604673	677.25
1456.834329	674.25
1461.061879	673.75
1465.287324	677.25
1469.510665	681.5
1473.731904	679.25
1477.951043	677.5
1482.168083	678.5
1486.383026	678.0
1490.595874	678.75
1494.806628	678.25
1499.01529	675.75
1503.221862	677.0
1507.426345	676.25
1511.62874	678.5
1515.82905	679.0
1520.027276	680.25
1524.223419	675.75
1528.417482	679.0
1532.609465	676.5
1536.799371	679.25
1540.987202	676.75
1545.172957	679.25
1549.35664	677.0
1553.538252	678.5
1557.717795	675.5
1561.89527	675.25
1566.070678	682.75
1570.244022	677.5
1574.415302	682.25
1578.584522	677.25
1582.751681	679.25
1586.916782	682.5
1591.079826	677.75
1595.240815	675.0
1599.399751	678.5
1603.556635	676.25
1607.711468	676.25
1611.864253	677.75
1616.014991	675.25
1620.163683	677.75
1624.310331	679.25
1628.454936	672.0
1632.597501	678.5
1636.738026	676.25
1640.876514	679.5
1645.012966	677.5
1649.147383	677.0
1653.279767	674.25
1657.41012	679.25
1661.538442	678.25
1665.664737	679.25
1669.789005	679.0
1673.911248	675.75
1678.031467	678.0
1682.149664	674.25
1686.265841	680.25
1690.379998	676.75
1694.492139	674.5
1698.602263	677.75
1702.710373	678.75
1706.816471	673.75
1710.920557	677.5
1715.022634	679.25
1719.122703	676.25
1723.220765	675.25
1727.316822	675.5
1731.410876	678.25
1735.502928	676.75
1739.592979	676.0
1743.681032	675.75
1747.767087	678.5
1751.851147	680.0
1755.933212	679.75
1760.013285	677.5
1764.091366	680.75
1768.167458	679.25
1772.241562	682.0
1776.313679	681.75
1780.383811	682.5
1784.451959	675.75
1788.518125	681.0
1792.582311	680.0
1796.644517	681.25
1800.704747	680.25
1804.763	678.0
1808.819278	679.75
1812.873584	680.5
1816.925918	677.75
1820.976282	675.5
1825.024678	679.5
1829.071107	678.75
1833.11557	682.0
1837.158069	677.75
1841.198606	676.75
1845.237182	680.25
1849.273798	680.75
1853.308456	682.25
1857.341158	681.5
1861.371905	679.25
1865.400698	682.5
1869.427539	677.25
1873.45243	679.25
1877.475371	678.5
1881.496365	679.75
1885.515413	678.0
1889.532516	679.75
1893.547675	678.75
1897.560893	678.5
1901.572171	678.75
1905.58151	681.75
1909.588912	678.5
1913.594378	680.75
1917.59791	680.25
1921.599508	682.0
1925.599176	678.5
1929.596913	678.75
1933.592721	680.0
1937.586603	678.75
1941.578559	679.5
1945.568591	680.5
1949.5567	684.0
1953.542888	679.25
1957.527156	677.75
1961.509505	680.5
1965.489938	678.25
1969.468455	682.0
1973.445059	679.25
1977.419749	680.5
1981.392529	684.75
1985.363398	679.75
1989.33236	681.75
1993.299414	680.75
1997.264563	683.75
2001.227808	680.25
2005.189151	679.0
2009.148592	682.0
2013.106134	679.75
2017.061777	681.0
2021.015524	681.25
2024.967375	695.75
2028.917331	682.25
2032.865396	679.0
2036.811569	678.25
2040.755852	684.75
2044.698247	678.25
2048.638755	679.75
2052.577377	679.25
2056.514116	680.0
2060.448971	682.5
2064.381945	684.0
2068.313039	682.0
2072.242255	676.5
2076.169593	678.75
2080.095056	678.5
2084.018644	679.25
2087.940359	681.5
2091.860203	684.5
2095.778177	682.75
2099.694281	680.75
2103.608519	680.75
2107.52089	682.25
2111.431396	680.25
2115.340039	680.5
2119.246821	683.25
2123.151742	684.0
2127.054803	679.0
2130.956007	685.75
2134.855354	685.0
2138.752847	684.5
2142.648486	682.75
2146.542272	680.5
2150.434207	681.0
2154.324293	678.75
2158.212531	680.25
2162.098922	682.25
2165.983467	682.5
2169.866168	684.25
2173.747026	682.25
2177.626043	683.75
2181.50322	682.75
2185.378558	683.75
2189.252059	680.25
2193.123723	682.25
2196.993553	685.0
2200.86155	685.5
2204.727714	681.75
2208.592048	683.5
2212.454552	681.0
2216.315229	683.0
2220.174078	681.75
2224.031103	688.75
2227.886303	682.0
2231.739681	681.75
2235.591237	679.75
2239.440973	685.25
2243.28889	682.5
2247.13499	687.0
2250.979274	682.5
2254.821744	682.75
2258.662399	686.75
2262.501243	681.75
2266.338275	684.5
2270.173499	679.5
2274.006913	681.0
2277.838521	685.0
2281.668324	681.75
2285.496322	683.0
2289.322517	681.0
2293.14691	678.0
2296.969503	684.25
2300.790297	685.0
2304.609293	684.5
2308.426492	681.75
2312.241897	681.0
2316.055507	684.0
2319.867324	684.5
2323.67735	683.25
2327.485586	685.75
2331.292034	683.75
2335.096693	682.0
2338.899567	678.75
2342.700655	685.0
2346.49996	681.5
2350.297482	678.75
2354.093223	684.5
2357.887184	682.75
2361.679366	685.0
2365.469771	684.5
2369.2584	685.5
2373.045254	685.75
2376.830334	681.75
2380.613642	683.0
2384.395179	683.5
2388.174946	684.25
2391.952945	684.0
2395.729176	687.75
2399.503641	685.0
2403.276341	685.25
2407.047277	688.75
2410.816451	684.0
2414.583864	683.0
2418.349517	684.5
2422.113412	686.75
2425.875549	687.75
2429.635929	685.75
2433.394555	684.0
2437.151427	687.5
2440.906547	684.25
2444.659915	681.75
2448.411533	685.5
2452.161402	689.25
2455.909524	681.75
2459.655899	685.75
2463.400529	687.0
2467.143415	685.25
2470.884558	690.5
2474.62396	684.75
2478.361622	683.25
2482.097544	685.5
2485.831728	683.75
2489.564175	685.75
2493.294887	686.0
2497.023865	680.5
2500.751109	689.5
2504.476622	687.25
2508.200403	686.25
2511.922455	687.25
2515.642779	683.0
2519.361376	687.75
2523.078246	688.25
2526.793392	685.0
2530.506813	683.5
2534.218513	686.25
2537.928491	684.0
2541.636749	688.25
2545.343288	686.5
2549.048109	684.5
2552.751214	685.25
2556.452603	684.0
2560.152278	687.75
2563.850239	686.0
2567.546489	686.25
2571.241028	686.5
2574.933857	686.25
2578.624978	683.25
2582.314391	681.25
2586.002099	684.75
2589.688101	682.0
2593.372399	687.75
2597.054995	683.0
2600.735888	685.75
2604.415082	685.0
2608.092576	684.75
2611.768372	681.5
2615.442471	685.75
2619.114873	684.0
2622.785582	686.0
2626.454596	687.5
2630.121918	684.75
2633.787548	684.75
2637.451488	690.75
2641.113739	684.75
2644.774302	683.75
2648.433178	688.75
2652.090368	685.0
2655.745874	686.75
2659.399696	685.25
2663.051835	686.0
2666.702293	687.75
2670.351071	683.5
2673.998169	688.25
2677.64359	688.75
2681.287333	687.5
2684.929401	685.5
2688.569793	682.75
2692.208513	687.25
2695.845559	689.5
2699.480934	690.0
2703.114639	683.5
2706.746674	684.5
2710.377041	687.0
2714.005741	694.0
2717.632774	688.25
2721.258143	688.0
2724.881848	684.25
2728.503889	686.0
2732.124269	682.25
2735.742989	687.75
2739.360048	690.75
2742.975449	683.0
2746.589193	687.5
2750.20128	685.75
2753.811711	684.75
2757.420488	687.75
2761.027612	690.75
2764.633084	688.5
2768.236904	684.0
2771.839074	688.75
2775.439595	682.75
2779.038468	686.25
2782.635694	684.25
2786.231274	684.0
2789.825209	689.0
2793.4175	691.0
2797.008149	686.75
2800.597155	689.75
2804.18452	683.5
2807.770246	682.0
2811.354333	689.25
2814.936782	686.75
2818.517594	684.75
2822.096771	687.25
2825.674313	687.5
2829.250221	686.0
2832.824497	687.5
2836.397141	686.5
2839.968154	686.25
2843.537537	685.25
2847.105292	690.5
2850.671419	683.0
2854.23592	685.25
2857.798795	686.25
2861.360045	685.5
2864.919672	690.5
2868.477676	687.0
2872.034058	684.25
2875.588819	684.75
2879.141961	689.25
2882.693484	686.75
2886.24339	687.0
2889.791678	684.75
2893.338351	689.0
2896.883409	683.5
2900.426853	683.25
2903.968684	688.75
2907.508903	685.75
2911.047511	685.75
2914.584509	689.75
2918.119899	688.75
2921.65368	687.0
2925.185854	688.5
2928.716421	686.75
2932.245384	684.25
2935.772742	682.25
2939.298497	684.25
2942.82265	689.75
2946.345201	683.25
2949.866152	681.0
2953.385503	687.5
2956.903255	687.0
2960.41941	689.75
2963.933968	687.0
2967.446931	686.0
2970.958298	683.0
2974.468071	688.0
2977.976252	687.75
2981.48284	686.75
2984.987837	684.25
2988.491243	689.0
2991.993061	685.75
2995.49329	685.0
2998.991931	687.25
3002.488986	686.75
3005.984455	688.25
3009.478339	688.0
3012.970639	686.5
3016.461356	686.0
3019.950491	684.25
3023.438044	690.0
3026.924018	686.5
3030.408412	685.75
3033.891227	687.0
3037.372464	689.5
3040.852125	689.5
3044.33021	687.25
3047.80672	684.75
3051.281655	689.75
3054.755018	687.75
3058.226808	685.75
3061.697026	691.0
3065.165674	687.0
3068.632751	682.5
3072.09826	688.0
3075.562201	685.5
3079.024574	685.5
3082.485381	686.25
3085.944623	686.0
3089.4023	687.75
3092.858413	682.5
3096.312963	684.0
3099.76595	687.75
3103.217377	685.5
3106.667243	684.5
3110.115549	689.5
3113.562297	685.25
3117.007487	685.75
3120.451119	686.75
3123.893195	686.75
3127.333716	685.75
3130.772682	687.5
3134.210094	687.5
3137.645953	684.75
3141.08026	687.75
3144.513016	684.0
3147.944221	686.75
3151.373876	685.25
3154.801983	690.0
3158.228541	683.5
3161.653551	683.5
3165.077016	684.75
3168.498934	687.5
3171.919308	690.5
3175.338137	687.0
3178.755423	685.5
3182.171166	686.5
3185.585368	684.5
3188.998029	686.75
3192.409149	686.75
3195.81873	683.75
3199.226772	686.75
3202.633276	683.75
3206.038244	686.75
3209.441674	685.0
3212.84357	685.75
3216.24393	685.75
3219.642756	687.5
3223.040049	684.5
3226.43581	683.75
3229.830038	687.5
3233.222736	688.75
3236.613903	686.0
3240.003541	683.5
3243.39165	687.0
3246.778231	687.0
3250.163284	684.75
3253.546811	688.0
3256.928812	688.25
3260.309288	685.25
3263.68824	685.75
3267.065668	683.75
3270.441573	686.0
