-1193.820308	682.25
-1188.166625	679.0
-1182.516195	677.25
-1176.869015	676.25
-1171.225082	673.0
-1165.584394	675.5
-1159.946947	670.5
-1154.31274	674.5
-1148.681769	672.5
-1143.054031	670.5
-1137.429524	669.5
-1131.808245	669.25
-1126.190192	668.75
-1120.57536	669.5
-1114.963749	669.75
-1109.355355	664.25
-1103.750175	666.75
-1098.148206	667.25
-1092.549446	665.25
-1086.953893	661.25
-1081.361543	662.75
-1075.772393	667.25
-1070.186442	664.5
-1064.603685	665.25
-1059.024122	665.0
-1053.447748	665.25
-1047.874562	666.75
-1042.30456	662.75
-1036.737739	663.5
-1031.174098	663.0
-1025.613633	664.0
-1020.056343	662.0
-1014.502223	662.5
-1008.951271	663.0
-1003.403486	662.25
-997.858863	662.5
-992.3174008	663.0
-986.7790964	663.5
-981.2439472	662.5
-975.7119503	662.5
-970.1831033	662.25
-964.6574035	662.0
-959.1348482	660.5
-953.6154348	661.75
-948.0991606	661.5
-942.5860231	661.0
-937.0760196	664.0
-931.5691475	661.0
-926.0654041	671.5
-920.5647868	663.0
-915.0672931	659.5
-909.5729203	658.25
-904.0816659	661.25
-898.5935271	661.5
-893.1085014	659.5
-887.6265863	661.75
-882.147779	663.25
-876.6720771	660.5
-871.1994779	661.5
-865.7299788	660.5
-860.2635773	659.75
-854.8002708	662.5
-849.3400567	660.5
-843.8829325	662.75
-838.4288955	660.25
-832.9779432	660.75
-827.5300731	661.5
-822.0852825	661.75
-816.643569	662.0
-811.2049299	659.0
-805.7693628	661.0
-800.336865	659.25
-794.907434	660.75
-789.4810674	661.5
-784.0577624	661.0
-778.6375167	661.5
-773.2203277	660.0
-767.8061928	662.0
-762.3951095	660.25
-756.9870753	660.0
-751.5820877	661.75
-746.1801442	659.5
-740.7812421	660.75
-735.3853792	658.25
-729.9925527	662.0
-724.6027603	660.5
-719.2159994	660.75
-713.8322675	658.0
-708.4515621	661.25
-703.0738807	661.75
-697.6992209	659.5
-692.3275801	660.25
-686.9589558	662.75
-681.5933456	661.75
-676.2307471	659.75
-670.8711576	660.5
-665.5145748	667.25
-660.1609961	660.25
-654.8104192	658.25
-649.4628415	660.25
-644.1182605	658.5
-638.7766739	660.75
-633.4380791	660.5
-628.1024737	662.5
-622.7698553	659.25
-617.4402213	659.5
-612.1135695	661.0
-606.7898972	662.5
-601.4692021	662.0
-596.1514817	660.25
-590.8367336	660.75
-585.5249553	658.75
-580.2161445	659.5
-574.9102987	660.25
-569.6074155	660.5
-564.3074924	660.75
-559.0105271	659.75
-553.7165171	660.75
-548.42546	665.25
-543.1373533	658.25
-537.8521948	661.0
-532.5699819	660.75
-527.2907124	659.0
-522.0143836	659.25
-516.7409934	660.0
-511.4705392	659.25
-506.2030188	658.75
-500.9384296	661.0
-495.6767693	662.25
-490.4180356	661.5
-485.162226	659.0
-479.9093381	658.5
-474.6593696	660.75
-469.4123182	658.5
-464.1681813	661.5
-458.9269567	660.25
-453.6886421	659.0
-448.4532349	660.0
-443.2207329	659.0
-437.9911337	659.5
-432.764435	659.0
-427.5406344	661.0
-422.3197295	663.25
-417.101718	660.75
-411.8865975	664.0
-406.6743658	659.5
-401.4650204	659.75
-396.258559	660.25
-391.0549793	661.25
-385.8542789	660.75
-380.6564555	660.5
-375.4615068	660.5
-370.2694305	658.75
-365.0802242	662.0
-359.8938856	658.25
-354.7104123	658.5
-349.5298022	661.75
-344.3520527	662.0
-339.1771617	660.25
-334.0051269	662.0
-328.8359458	662.25
-323.6696162	663.5
-318.5061359	661.75
-313.3455024	659.5
-308.1877135	661.75
-303.032767	661.25
-297.8806604	659.5
-292.7313915	661.0
-287.5849581	659.0
-282.4413578	662.25
-277.3005883	659.25
-272.1626474	660.25
-267.0275328	660.75
-261.8952422	660.75
-256.7657734	661.25
-251.6391239	660.25
-246.5152917	661.0
-241.3942744	661.75
-236.2760697	660.5
-231.1606754	663.5
-226.0480892	663.25
-220.9383088	660.0
-215.8313321	660.75
-210.7271566	661.5
-205.6257803	662.5
-200.5272008	659.5
-195.4314159	663.25
-190.3384233	662.25
-185.2482208	664.5
-180.1608062	661.5
-175.0761772	660.25
-169.9943315	662.25
-164.915267	660.0
-159.8389813	659.75
-154.7654723	662.0
-149.6947378	660.0
-144.6267754	663.75
-139.5615831	662.5
-134.4991585	662.5
-129.4394994	663.25
-124.3826036	664.75
-119.328469	663.0
-114.2770932	664.5
-109.2284741	660.75
-104.1826095	664.5
-99.13949706	663.5
-94.09913471	663.5
-89.06152019	663.0
-84.02665132	662.75
-78.99452587	664.0
-73.96514167	666.5
-68.93849651	663.0
-63.91458819	665.0
-58.89341453	665.0
-53.87497334	662.25
-48.85926242	665.0
-43.8462796	667.5
-38.83602269	667.0
-33.8284895	670.0
-28.82367786	670.25
-23.82158558	668.5
-18.82221051	672.5
-13.82555045	680.5
-8.831603238	840.0
6.133982984	913.75
11.11710047	691.75
16.09751594	687.5
21.07523155	696.5
26.05024945	698.0
31.02257181	714.75
35.99220076	726.5
40.95913848	746.0
45.9233871	763.75
50.88494877	902.75
55.84382564	2315.25
60.80001985	16408.25
65.75353355	58609.0
70.70436887	65535.0
75.65252795	65535.0
80.59801293	64104.75
85.54082594	54929.25
90.48096911	47622.25
95.41844457	40959.75
100.3532545	34880.0
105.2854009	29618.5
110.214886	25513.25
115.1417119	22105.25
120.0658807	19257.25
124.9873945	16826.0
129.9062555	14773.5
134.8224658	13046.5
139.7360274	11552.5
144.6469425	10333.5
149.5552132	9189.75
154.4608416	8322.25
159.3638298	7575.5
164.2641799	7015.0
169.161894	6603.25
174.0569743	6374.0
178.9494227	6120.0
183.8392415	5957.0
188.7264326	5776.75
193.6109983	5589.75
198.4929405	5270.75
203.3722614	4819.25
208.248963	4488.75
213.1230475	4307.75
217.9945169	4236.75
222.8633733	4201.25
227.7296187	4135.5
232.5932554	4083.0
237.4542852	3977.75
242.3127104	3904.5
247.168533	3906.25
252.021755	3910.75
256.8723785	3819.0
261.7204056	3687.5
266.5658383	3494.0
271.4086788	3312.0
276.248929	3290.0
281.086591	3358.5
285.921667	3519.0
290.7541588	3668.75
295.5840687	3804.5
300.4113986	4018.5
305.2361506	4394.0
310.0583267	4894.5
314.8779291	5550.5
319.6949596	6331.5
324.5094205	7054.25
329.3213137	7556.75
334.1306412	7555.75
338.9374051	7256.5
343.7416074	6688.0
348.5432503	6225.0
353.3423356	5827.0
358.1388654	5508.25
362.9328418	5153.5
367.7242668	4958.75
372.5131423	4831.5
377.2994705	4847.75
382.0832534	5034.0
386.8644929	5389.25
391.6431911	5746.75
396.4193501	5721.25
401.1929717	5168.25
405.9640581	4349.0
410.7326112	3666.75
415.4986331	3214.0
420.2621258	2956.0
425.0230912	2785.25
429.7815314	2692.5
434.5374483	2601.75
439.2908441	2512.5
444.0417206	2514.75
448.7900799	2498.5
453.5359239	2492.0
458.2792547	2542.25
463.0200743	2547.75
467.7583846	2553.25
472.4941877	2512.75
477.2274854	2501.0
481.9582799	2497.25
486.6865731	2521.5
491.4123669	2613.25
496.1356634	2751.0
500.8564646	3111.0
505.5747723	3700.5
519.7147549	3567.5
524.4231088	3409.5
529.1289792	3307.75
533.832368	3240.75
538.5332772	3183.0
543.2317088	3135.25
547.9276647	3105.5
552.6211469	3160.75
557.3121574	3211.25
562.000698	3158.0
566.6867708	3015.5
571.3703777	2909.5
576.0515207	2818.0
580.7302017	2703.5
585.4064227	2580.0
590.0801856	2463.5
594.7514923	2316.25
599.4203448	2223.75
604.0867451	2191.5
608.7506951	2167.5
613.4121966	2187.75
618.0712518	2238.25
622.7278624	2322.5
627.3820305	2446.0
632.0337579	2615.0
636.6830466	2899.25
641.3298986	3303.75
645.9743157	3939.0
650.6162998	5086.0
655.255853	6897.0
659.8929771	9693.75
673.789794	10269.0
678.417221	7416.25
683.0422285	5455.5
687.6648184	4254.75
692.2849926	3579.75
696.9027531	3159.75
701.5181017	2903.75
706.1310404	2701.75
710.7415711	2550.5
715.3496956	2418.0
719.9554159	2340.0
724.5587338	2263.75
729.1596513	2175.5
733.7581703	2144.75
738.3542927	2123.5
742.9480203	2079.75
747.539355	2098.25
752.1282988	2100.75
756.7148535	2106.25
761.299021	2156.75
765.8808033	2178.25
770.4602021	2222.5
775.0372193	2213.5
779.611857	2249.5
784.1841168	2302.5
788.7540007	2316.75
793.3215107	2358.25
797.8866484	2384.25
802.4494159	2448.0
807.009815	2484.25
811.5678476	2550.0
816.1235155	2618.75
820.6768206	2635.25
825.2277648	2663.25
829.7763499	2689.5
834.3225778	2659.0
838.8664504	2659.0
843.4079695	2624.0
847.9471369	2619.5
852.4839546	2663.75
857.0184244	2720.75
861.550548	2783.75
866.0803275	2795.5
870.6077646	2842.75
875.1328612	2816.0
879.6556192	2809.0
884.1760403	2803.0
888.6941264	2810.0
893.2098794	2806.25
897.723301	2810.0
902.2343933	2782.75
906.7431578	2778.25
911.2495967	2832.0
915.7537115	2846.75
920.2555042	2845.5
924.7549767	2888.5
929.2521306	2916.5
933.746968	2937.0
938.2394905	2955.0
942.7297	3003.75
947.2175984	3050.0
951.7031874	3131.5
956.186469	3221.0
960.6674448	3392.75
965.1461167	3558.5
969.6224866	3696.25
974.0965562	3970.25
978.5683274	4293.0
983.0378019	4753.0
987.5049816	5319.25
991.9698683	6193.5
996.4324638	7252.0
1000.89277	8561.25
1014.25997	8611.0
1018.711136	6840.25
1023.160022	5364.0
1027.60663	4561.5
1032.05096	4096.5
1036.493016	3861.5
1040.932799	3651.5
1045.370309	3499.25
1049.805551	3324.75
1054.238524	3107.5
1058.669232	2926.25
1063.097675	2817.75
1067.523855	2655.0
1071.947775	2559.75
1076.369436	2447.25
1080.788839	2423.5
1085.205988	2344.5
1089.620882	2291.0
1094.033525	2231.75
1098.443918	2210.0
1102.852062	2138.5
1107.25796	2109.25
1111.661613	2084.0
1116.063023	2036.0
1120.462191	2013.5
1124.85912	1953.75
1129.253812	1902.25
1133.646267	1817.5
1138.036489	1797.5
1142.424477	1747.5
1146.810235	1731.0
1151.193764	1690.75
1155.575066	1670.0
1159.954143	1666.0
1164.330995	1661.25
1168.705626	1656.5
1173.078037	1641.75
1177.448229	1638.25
1181.816204	1630.5
1186.181964	1637.25
1190.545511	1639.75
1194.906847	1636.25
1199.265972	1640.5
1203.62289	1638.75
1207.977601	1680.25
1212.330108	1666.0
1216.680412	1683.25
1221.028515	1720.0
1225.374418	1757.75
1229.718124	1771.25
1234.059633	1837.5
1238.398949	1899.25
1242.736072	2020.75
1247.071004	2169.25
1251.403747	2413.25
1255.734303	3267.5
1260.062673	4167.5
1264.388859	3692.75
1273.034686	4211.25
1277.354331	12715.25
1281.671798	18738.0
1285.98709	6764.25
1290.300209	3197.75
1294.611155	2630.25
1298.919931	2451.5
1303.226539	2330.0
1307.530979	2247.0
1311.833255	2238.0
1316.133366	2190.25
1320.431316	2230.25
1324.727106	2237.0
1329.020738	2275.5
1333.312213	2283.75
1337.601532	2272.75
1341.888699	2260.75
1346.173713	2266.0
1350.456578	2319.0
1354.737294	2376.75
1359.015864	2507.75
1363.292289	2729.75
1367.56657	3185.0
1371.83871	3326.25
1376.10871	4014.5
1380.376571	10942.5
1384.642296	33948.25
1388.905886	22140.75
1393.167343	6242.5
1401.683863	4629.25
1405.93893	5970.25
1410.19187	4912.25
1414.442686	3070.5
1418.691378	2450.75
1422.937948	2248.0
1427.182398	2090.75
1431.42473	1946.75
1435.664946	1878.0
1439.903046	1806.75
1444.139033	1740.5
1448.372908	1720.0
1452.604673	1687.25
1456.834329	1653.25
1461.061879	1631.75
1465.287324	1616.25
1469.510665	1605.5
1473.731904	1585.0
1477.951043	1582.5
1482.168083	1580.0
1486.383026	1560.25
1490.595874	1545.0
1494.806628	1541.0
1499.01529	1539.0
1503.221862	1538.0
1507.426345	1533.5
1511.62874	1528.25
1515.82905	1517.25
1520.027276	1520.0
1524.223419	1520.0
1528.417482	1522.5
1532.609465	1502.0
1536.799371	1513.75
1540.987202	1520.25
1545.172957	1500.25
1549.35664	1516.0
1553.538252	1535.5
1557.717795	1509.75
1561.89527	1498.5
1566.070678	1505.25
1570.244022	1496.25
1574.415302	1508.5
1578.584522	1498.75
1582.751681	1502.75
1586.916782	1504.25
1591.079826	1474.5
1595.240815	1500.25
1599.399751	1491.5
1603.556635	1499.25
1607.711468	1500.25
1611.864253	1490.5
1616.014991	1490.25
1620.163683	1486.0
1624.310331	1485.75
1628.454936	1501.5
1632.597501	1488.5
1636.738026	1478.25
1640.876514	1490.5
1645.012966	1478.0
1649.147383	1480.25
1653.279767	1482.75
1657.41012	1495.25
1661.538442	1483.0
1665.664737	1478.0
1669.789005	1474.25
1673.911248	1463.5
1678.031467	1454.5
1682.149664	1448.0
1686.265841	1455.0
1690.379998	1453.0
1694.492139	1437.75
1698.602263	1425.5
1702.710373	1422.5
1706.816471	1445.75
1710.920557	1445.0
1715.022634	1426.75
1719.122703	1421.75
1723.220765	1432.75
1727.316822	1432.75
1731.410876	1421.0
1735.502928	1429.0
1739.592979	1431.25
1743.681032	1428.25
1747.767087	1429.25
1751.851147	1422.5
1755.933212	1407.5
1760.013285	1412.0
1764.091366	1430.75
1768.167458	1430.75
1772.241562	1426.0
1776.313679	1412.75
1780.383811	1419.0
1784.451959	1407.0
1788.518125	1412.75
1792.582311	1422.0
1796.644517	1418.25
1800.704747	1410.25
1804.763	1420.0
1808.819278	1423.5
1812.873584	1415.5
1816.925918	1418.5
1820.976282	1409.0
1825.024678	1413.75
1829.071107	1413.5
1833.11557	1421.25
1837.158069	1414.0
1841.198606	1410.5
1845.237182	1421.5
1849.273798	1408.5
1853.308456	1418.0
1857.341158	1427.0
1861.371905	1421.75
1865.400698	1419.0
1869.427539	1424.25
1873.45243	1415.5
1877.475371	1413.75
1881.496365	1421.75
1885.515413	1397.5
1889.532516	1408.0
1893.547675	1413.75
1897.560893	1413.75
1901.572171	1416.5
1905.58151	1404.25
1909.588912	1420.5
1913.594378	1406.25
1917.59791	1403.25
1921.599508	1411.25
1925.599176	1387.25
1929.596913	1385.75
1933.592721	1392.5
1937.586603	1395.0
1941.578559	1407.25
1945.568591	1398.5
1949.5567	1387.25
1953.542888	1389.75
1957.527156	1388.5
1961.509505	1387.75
1965.489938	1381.25
1969.468455	1415.5
1973.445059	1382.0
1977.419749	1389.75
1981.392529	1395.0
1985.363398	1392.25
1989.33236	1383.75
1993.299414	1386.25
1997.264563	1383.75
2001.227808	1380.75
2005.189151	1379.5
2009.148592	1375.5
2013.106134	1378.5
2017.061777	1378.0
2021.015524	1369.25
2024.967375	1381.25
2028.917331	1370.25
2032.865396	1369.5
2036.811569	1357.25
2040.755852	1350.25
2044.698247	1373.25
2048.638755	1369.0
2052.577377	1365.0
2056.514116	1354.5
2060.448971	1364.5
2064.381945	1353.0
2068.313039	1348.25
2072.242255	1358.5
2076.169593	1351.0
2080.095056	1347.25
2084.018644	1341.0
2087.940359	1330.75
2091.860203	1336.0
2095.778177	1337.0
2099.694281	1344.25
2103.608519	1341.25
2107.52089	1355.25
2111.431396	1318.75
2115.340039	1340.5
2119.246821	1329.5
2123.151742	1324.0
2127.054803	1316.5
2130.956007	1315.75
2134.855354	1328.0
2138.752847	1319.5
2142.648486	1332.75
2146.542272	1325.25
2150.434207	1329.75
2154.324293	1315.0
2158.212531	1311.75
2162.098922	1308.25
2165.983467	1325.25
2169.866168	1310.25
2173.747026	1300.0
2177.626043	1292.5
2181.50322	1297.5
2185.378558	1294.0
2189.252059	1301.25
2193.123723	1309.0
2196.993553	1281.75
2200.86155	1284.5
2204.727714	1288.0
2208.592048	1275.25
2212.454552	1290.75
2216.315229	1286.25
2220.174078	1284.25
2224.031103	1279.5
2227.886303	1266.5
2231.739681	1274.75
2235.591237	1271.5
2239.440973	1277.5
2243.28889	1258.75
2247.13499	1257.5
2250.979274	1268.0
2254.821744	1274.25
2258.662399	1266.25
2262.501243	1255.0
2266.338275	1255.0
2270.173499	1269.0
2274.006913	1264.5
2277.838521	1253.25
2281.668324	1268.5
2285.496322	1253.25
2289.322517	1269.5
2293.14691	1263.75
2296.969503	1267.25
2300.790297	1256.0
2304.609293	1253.5
2308.426492	1268.25
2312.241897	1263.5
2316.055507	1269.25
2319.867324	1261.5
2323.67735	1265.25
2327.485586	1279.25
2331.292034	1268.75
2335.096693	1271.25
2338.899567	1252.25
2342.700655	1266.0
2346.49996	1255.5
2350.297482	1259.25
2354.093223	1268.5
2357.887184	1252.0
2361.679366	1255.75
2365.469771	1257.5
2369.2584	1234.5
2373.045254	1248.25
2376.830334	1242.0
2380.613642	1248.25
2384.395179	1246.0
2388.174946	1243.75
2391.952945	1246.0
2395.729176	1236.25
2399.503641	1234.25
2403.276341	1232.75
2407.047277	1233.25
2410.816451	1233.5
2414.583864	1227.5
2418.349517	1235.0
2422.113412	1240.25
2425.875549	1229.25
2429.635929	1245.0
2433.394555	1216.5
2437.151427	1231.5
2440.906547	1240.5
2444.659915	1225.5
2448.411533	1219.25
2452.161402	1235.25
2455.909524	1242.0
2459.655899	1214.75
2463.400529	1222.5
2467.143415	1210.25
2470.884558	1214.5
2474.62396	1212.25
2478.361622	1222.75
2482.097544	1221.0
2485.831728	1206.25
2489.564175	1213.75
2493.294887	1221.75
2497.023865	1199.0
2500.751109	1209.25
2504.476622	1204.5
2508.200403	1205.5
2511.922455	1197.0
2515.642779	1213.25
2519.361376	1202.25
2523.078246	1206.75
2526.793392	1203.0
2530.506813	1203.0
2534.218513	1196.75
2537.928491	1195.25
2541.636749	1188.5
2545.343288	1194.5
2549.048109	1193.5
2552.751214	1189.25
2556.452603	1189.75
2560.152278	1200.0
2563.850239	1184.5
2567.546489	1186.25
2571.241028	1182.75
2574.933857	1184.5
2578.624978	1179.0
2582.314391	1177.0
2586.002099	1190.0
2589.688101	1179.0
2593.372399	1185.75
2597.054995	1174.5
2600.735888	1192.5
2604.415082	1184.0
2608.092576	1197.25
2611.768372	1190.75
2615.442471	1179.75
2619.114873	1165.25
2622.785582	1164.25
2626.454596	1179.25
2630.121918	1176.75
2633.787548	1184.0
2637.451488	1174.0
2641.113739	1170.75
2644.774302	1152.5
2648.433178	1167.5
2652.090368	1164.5
2655.745874	1163.75
2659.399696	1158.25
2663.051835	1147.0
2666.702293	1158.0
2670.351071	1176.75
2673.998169	1156.75
2677.64359	1153.75
2681.287333	1161.0
2684.929401	1140.5
2688.569793	1154.0
2692.208513	1167.0
2695.845559	1145.25
2699.480934	1149.0
2703.114639	1160.25
2706.746674	1162.75
2710.377041	1158.75
2714.005741	1157.5
2717.632774	1143.75
2721.258143	1153.25
2724.881848	1140.0
2728.503889	1151.25
2732.124269	1151.75
2735.742989	1142.25
2739.360048	1144.75
2742.975449	1146.25
2746.589193	1135.75
2750.20128	1138.75
2753.811711	1142.5
2757.420488	1135.5
2761.027612	1140.5
2764.633084	1132.0
2768.236904	1139.75
2771.839074	1150.0
2775.439595	1132.25
2779.038468	1130.75
2782.635694	1150.25
2786.231274	1133.75
2789.825209	1131.5
2793.4175	1135.25
2797.008149	1115.25
2800.597155	1123.5
2804.18452	1125.5
2807.770246	1120.5
2811.354333	1122.5
2814.936782	1134.5
2818.517594	1126.5
2822.096771	1122.0
2825.674313	1138.75
2829.250221	1123.5
2832.824497	1120.75
2836.397141	1129.75
2839.968154	1124.75
2843.537537	1117.25
2847.105292	1130.25
2850.671419	1125.75
2854.23592	1113.0
2857.798795	1101.75
2861.360045	1110.75
2864.919672	1107.75
2868.477676	1121.0
2872.034058	1115.5
2875.588819	1106.25
2879.141961	1107.75
2882.693484	1104.5
2886.24339	1102.75
2889.791678	1107.5
2893.338351	1092.5
2896.883409	1105.25
2900.426853	1103.25
2903.968684	1109.75
2907.508903	1097.75
2911.047511	1097.5
2914.584509	1117.25
2918.119899	1091.25
2921.65368	1094.75
2925.185854	1094.25
2928.716421	1103.25
2932.245384	1100.75
2935.772742	1102.25
2939.298497	1099.5
2942.82265	1097.5
2946.345201	1098.75
2949.866152	1098.5
2953.385503	1100.75
2956.903255	1093.25
2960.41941	1104.75
2963.933968	1100.75
2967.446931	1106.5
2970.958298	1105.25
2974.468071	1107.75
2977.976252	1104.5
2981.48284	1096.0
2984.987837	1110.25
2988.491243	1097.25
2991.993061	1108.0
2995.49329	1113.75
2998.991931	1103.25
3002.488986	1102.0
3005.984455	1095.75
3009.478339	1093.25
3012.970639	1080.75
3016.461356	1095.5
3019.950491	1101.0
3023.438044	1081.0
3026.924018	1095.25
3030.408412	1089.75
3033.891227	1078.25
3037.372464	1089.0
3040.852125	1070.75
3044.33021	1077.75
3047.80672	1080.25
3051.281655	1084.25
3054.755018	1086.0
3058.226808	1080.5
3061.697026	1076.25
3065.165674	1065.5
3068.632751	1085.5
3072.09826	1068.5
3075.562201	1086.0
3079.024574	1085.0
3082.485381	1069.5
3085.944623	1070.75
3089.4023	1079.0
3092.858413	1075.5
3096.312963	1070.0
3099.76595	1079.25
3103.217377	1072.25
3106.667243	1073.0
3110.115549	1072.0
3113.562297	1070.75
3117.007487	1072.5
3120.451119	1063.25
3123.893195	1063.5
3127.333716	1070.75
3130.772682	1056.25
3134.210094	1063.25
3137.645953	1054.75
3141.08026	1066.0
3144.513016	1065.25
3147.944221	1069.0
3151.373876	1069.25
3154.801983	1068.75
3158.228541	1067.75
3161.653551	1062.25
3165.077016	1079.25
3168.498934	1058.0
3171.919308	1068.0
3175.338137	1055.75
3178.755423	1059.0
3182.171166	1063.75
3185.585368	1057.25
3188.998029	1058.5
3192.409149	1065.5
3195.81873	1052.75
3199.226772	1045.75
3202.633276	1054.0
3206.038244	1052.25
3209.441674	1053.25
3212.84357	1051.0
3216.24393	1052.5
3219.642756	1056.5
3223.040049	1049.75
3226.43581	1044.25
3229.830038	1054.0
3233.222736	1032.0
3236.613903	1039.0
3240.003541	1042.5
3243.39165	1048.25
3246.778231	1048.5
3250.163284	1050.25
3253.546811	1044.75
3256.928812	1049.75
3260.309288	1044.5
3263.68824	1046.25
3267.065668	1040.0
3270.441573	1029.25
